id,attr_time,attr_x,attr_y,attr_z
1,1437144375016,2.2523453,9.924564,0.051475335
2,1437144375038,2.3876176,9.890448,0.073621705
3,1437144375086,2.2900538,9.938332,0.09876082
4,1437144375099,2.3002293,9.974843,0.16519992
5,1437144375100,2.3289597,9.89763,0.093972415
6,1437144375117,2.392406,9.919178,0.016759412
7,1437144375138,2.4109612,9.907805,0.033518825
8,1437144375158,2.212841,9.850943,0.078410104
9,1437144375178,2.2481554,9.953894,0.12389994
10,1437144375197,2.3690627,9.964667,0.15442601
11,1437144375233,2.3409307,9.877877,0.044891283
12,1437144375237,2.2960393,9.824008,-0.021547815
13,1437144375258,2.4025815,9.813833,0.046686932
14,1437144375278,2.4432828,9.886856,0.14664486
15,1437144375297,2.393603,9.920973,0.16998832
16,1437144375318,2.5198972,9.855731,0.1388637
17,1437144375339,2.484583,9.840768,0.1388637
18,1437144375360,2.4420857,9.844358,0.0005985504
19,1437144375381,2.3744495,9.894038,0.090979666
20,1437144375399,2.3750482,9.935937,0.1388637
21,1437144375418,2.4720132,9.869498,0.14185645
22,1437144375438,2.4390929,9.861118,0.04129998
23,1437144375458,2.4133554,9.889849,0.008978256
24,1437144375481,2.4001873,9.913192,0.04369418
25,1437144375501,2.3953989,9.881469,0.13587095
26,1437144375518,2.3870192,9.939528,0.12030864
27,1437144375539,2.4851813,9.862315,0.110731825
28,1437144375561,2.5139117,9.820416,0.049679685
29,1437144375581,2.4809916,9.867104,0.027533319
30,1437144375601,2.3648727,9.930551,0.09756372
31,1437144375625,2.2996306,9.93893,0.13826515
32,1437144375639,2.5103204,9.849147,0.13227965
33,1437144375663,2.4702177,9.8515415,0.054468088
34,1437144375685,2.420538,9.8994255,-0.020350715
35,1437144375701,2.297835,9.962274,0.0724246
36,1437144375721,2.3277626,9.976639,0.11252748
37,1437144375738,2.445677,9.903017,0.110133275
38,1437144375758,2.4768016,9.868899,0.059855044
39,1437144375778,2.4498668,9.844957,-0.0053869537
40,1437144375805,2.4145525,9.81922,0.04189853
41,1437144375822,2.3535004,9.846154,0.073621705
42,1437144375843,2.3229742,9.973646,0.09995792
43,1437144375861,2.3588872,9.998785,0.090979666
44,1437144375882,2.4504654,9.905411,0.025737667
45,1437144375960,2.4636335,9.88506,0.039504327
46,1437144375961,2.3708582,9.880871,0.044292733
47,1437144375962,2.3876176,9.892242,0.088585466
48,1437144375963,2.4510639,9.879673,0.051475335
49,1437144375982,2.409764,9.879673,0.016759412
50,1437144376003,2.344522,9.921572,0.03172317
51,1437144376018,2.3265655,9.91439,0.08379706
52,1437144376046,2.4450784,9.871294,0.108337626
53,1437144376058,2.4019828,9.907207,0.022146367
54,1437144376080,2.27928,9.916184,-0.008379706
55,1437144376106,2.315193,9.94312,0.01316811
56,1437144376119,2.4061728,9.904214,0.06703765
57,1437144376141,2.4438813,9.892242,0.08080431
58,1437144376160,2.3732524,9.885659,0.090979666
59,1437144376182,2.3852234,9.871892,0.05267244
60,1437144376201,2.4013844,9.869498,0.046088383
61,1437144376219,2.4139538,9.861717,0.059855044
62,1437144376241,2.3959973,9.948506,0.050876785
63,1437144376262,2.3983915,9.950901,0.021547815
64,1437144376279,2.3930047,9.909601,0.08020575
65,1437144376301,2.484583,9.883863,0.027533319
66,1437144376322,2.4307132,9.779117,0.04369418
67,1437144376344,2.3451207,9.874885,0.04249708
68,1437144376362,2.267309,9.956287,0.11312603
69,1437144376384,2.393603,9.946113,0.0796072
70,1437144376399,2.4678235,9.857527,0.06823475
71,1437144376424,2.397793,9.858724,0.035913024
72,1437144376442,2.3660698,9.858126,0.05865794
73,1437144376459,2.2427685,9.93474,0.092775315
74,1437144376480,2.3259668,9.977836,0.1436521
75,1437144376498,2.4480712,9.929353,0.05267244
76,1437144376525,2.428319,9.888053,-0.004189853
77,1437144376544,2.3870192,9.818023,0.04070143
78,1437144376564,2.2439656,9.913791,0.05746084
79,1437144376581,2.223615,9.96766,0.095169514
80,1437144376718,2.3840263,9.927557,0.14065935
81,1437144376719,2.4235306,9.871294,0.050876785
82,1437144376720,2.4378958,9.836577,-0.007182605
83,1437144376721,2.3319526,9.888652,0.006584055
84,1437144376722,2.2703018,9.965864,0.109534726
85,1437144376723,2.2319946,9.954493,0.095169514
86,1437144376724,2.3092074,9.967062,0.11432313
87,1437144376743,2.4624364,9.859921,0.06404489
88,1437144376759,2.2936451,9.857527,0.054468088
89,1437144376787,2.2589293,9.97604,0.11611878
90,1437144376799,2.2427685,9.993997,0.1316811
91,1437144376822,2.2385786,9.9712515,0.09636662
92,1437144376847,2.3732524,9.879673,0.06404489
93,1437144376860,2.2948422,9.859323,0.074818805
94,1437144376879,2.1996727,9.915586,0.09816227
95,1437144376900,2.2290018,9.941922,0.11911154
96,1437144376921,2.2732944,9.9712515,0.08559271
97,1437144376943,2.3056161,9.933543,0.073621705
98,1437144376961,2.191293,9.929952,0.02932897
99,1437144376982,2.183512,9.936536,0.038905777
100,1437144377000,2.1691468,9.907805,0.08678981
101,1437144377021,2.2242134,9.939528,0.090381116
102,1437144377043,2.2224178,9.937134,0.07062895
103,1437144377061,2.2038627,9.924564,0.0077811554
104,1437144377086,2.2756886,9.886856,-0.0035913025
105,1437144377100,2.147599,9.96347,0.045489833
106,1437144377124,2.1086931,10.032304,0.12150574
107,1437144377146,2.094328,9.9951935,0.11432313
108,1437144377164,2.2397757,9.898229,0.051475335
109,1437144377183,2.4121583,9.878476,0.046686932
110,1437144377199,2.0901382,9.916184,0.015562311
111,1437144377219,2.0081367,9.999383,0.059855044
112,1437144377239,2.1583729,9.995792,0.15981296
113,1437144377265,2.2152352,9.970653,0.088585466
114,1437144377286,2.1577742,9.89763,0.054468088
115,1437144377300,2.112883,9.866506,0.074818805
116,1437144377321,2.0805612,9.988011,-0.02932897
117,1437144377350,2.0362685,10.0508585,0.0712275
118,1437144377424,2.082357,10.001778,0.10354923
119,1437144377425,2.1278467,9.956287,0.16639702
120,1437144377426,2.144606,9.896433,0.092775315
121,1437144377427,2.1613655,9.883863,0.1352724
122,1437144377440,1.8680758,9.979631,0.014963761
123,1437144377469,1.7962499,10.075998,0.05566519
124,1437144377482,2.136825,10.075399,0.17417817
125,1437144377499,2.1739352,9.958682,0.1448492
126,1437144377522,2.1242554,9.907207,0.17776948
127,1437144377541,2.1003134,9.883863,0.15382746
128,1437144377561,1.7591397,9.953295,0.16460137
129,1437144377581,1.678934,10.172963,0.108337626
130,1437144377605,2.018312,10.09994,0.1400608
131,1437144377623,2.086547,9.995792,0.17537527
132,1437144377641,2.0272903,9.945514,0.16220717
133,1437144377665,2.0015526,9.890448,0.12928689
134,1437144377683,1.9129672,9.864111,0.25498247
135,1437144377703,1.4341269,10.04607,0.30466217
136,1437144377724,1.6603789,10.253169,0.18315643
137,1437144377744,2.0895395,10.028113,0.3250129
138,1437144377763,1.9662381,9.961675,0.2705448
139,1437144377783,1.977012,9.958682,0.24121583
140,1437144377803,1.8046296,9.938332,0.2813187
141,1437144377823,1.6358383,9.953894,0.2645593
142,1437144377844,1.5346833,9.967062,0.26276365
143,1437144377863,1.5819688,10.078392,0.31663316
144,1437144377883,1.7525556,10.086173,0.3196259
145,1437144377904,1.7340006,9.986216,0.29987377
146,1437144377923,1.6986861,9.985018,0.31244332
147,1437144377943,1.5729905,10.049063,0.31783026
148,1437144377963,1.4371196,10.102933,0.3489549
149,1437144377983,1.6430209,10.04607,0.23942018
150,1437144378004,2.03567,10.013748,0.3705027
151,1437144378023,1.6466122,9.9951935,0.42556936
152,1437144378043,1.3383588,10.016143,0.3345897
153,1437144378070,1.6436194,10.022727,0.37948096
154,1437144378165,1.7088615,10.061034,0.4369418
155,1437144378166,1.602918,10.047866,0.35673606
156,1437144378167,1.79206,9.998785,0.44651863
157,1437144378168,1.6364368,10.003573,0.4818331
158,1437144378169,1.5041572,10.002377,0.40821138
159,1437144378180,1.5759833,10.02153,0.42676646
160,1437144378208,1.5849615,9.979631,0.43035775
161,1437144378222,1.6250644,9.880871,0.3669114
162,1437144378241,1.2868834,10.016742,0.516549
163,1437144378263,1.1312603,10.198102,0.41000703
164,1437144378282,1.5239093,10.164583,0.54887074
165,1437144378301,1.6310499,10.0664215,0.51475334
166,1437144378322,1.6041151,10.128072,0.3405752
167,1437144378343,1.4347254,10.192716,0.37469256
168,1437144378361,1.1659763,9.920375,0.52373165
169,1437144378383,1.0684125,9.993997,0.47524905
170,1437144378404,1.1875241,10.070012,0.4973954
171,1437144378423,1.2862848,10.079589,0.39264908
172,1437144378443,1.2216414,10.0987425,0.4309563
173,1437144378464,1.1845313,10.041881,0.50517654
174,1437144378484,1.3263878,10.032304,0.5907693
175,1437144378503,1.3162124,10.11251,0.415394
176,1437144378528,1.2683283,10.070611,0.4189853
177,1437144378555,1.3449428,10.018537,0.3866636
178,1437144378560,1.4395138,10.02153,0.50637364
179,1437144378580,1.2186487,10.059837,0.49799395
180,1437144378601,1.3084313,10.045472,0.43634325
181,1437144378623,1.3652935,10.038888,0.39384618
182,1437144378641,0.9020155,10.071808,0.42916065
183,1437144378666,1.0378864,10.061633,0.29269117
184,1437144378685,1.3796587,10.076596,0.39863458
185,1437144378705,1.3760674,10.043676,0.47465047
186,1437144378724,1.2946646,10.108918,0.43634325
187,1437144378744,1.0570401,10.149021,0.47884035
188,1437144378761,0.85891986,10.129868,0.3597288
189,1437144378783,0.93373865,10.095152,0.36152446
190,1437144378804,0.95349085,10.122087,0.20530279
191,1437144378822,0.78170687,10.030508,0.43993455
192,1437144378896,0.8714894,10.068216,0.46088383
193,1437144378897,0.9008184,10.080787,0.4261679
194,1437144378902,1.1881226,10.253767,0.29688102
195,1437144378903,1.6472107,10.131663,0.12509704
196,1437144378924,1.941099,9.998785,-0.093373865
197,1437144378941,1.2970588,10.092757,0.19752164
198,1437144378961,0.96187055,10.056845,0.26396075
199,1437144378986,1.34195,10.192716,0.30526072
200,1437144379001,1.3563153,10.128671,0.41120413
201,1437144379022,1.2198458,10.1621895,0.42197806
202,1437144379044,1.2623428,10.118495,0.52971715
203,1437144379062,1.1707647,10.0903635,0.41299978
204,1437144379081,0.9911995,10.234613,0.46208093
205,1437144379104,0.7020996,10.144233,0.48841715
206,1437144379125,0.6326678,10.071808,0.2741361
207,1437144379144,0.9391256,10.191518,0.044891283
208,1437144379164,1.4736311,10.183737,0.48602295
209,1437144379184,0.6835446,10.268132,0.7140707
210,1437144379204,0.076015905,10.258555,0.26635495
211,1437144379224,0.52852005,10.243592,0.272939
212,1437144379245,1.276708,10.348937,0.47884035
213,1437144379266,1.5837644,10.326192,0.89603
214,1437144379282,0.8631097,10.338761,0.9391256
215,1437144379304,0.29448682,10.479421,0.89303726
216,1437144379322,-0.37708676,10.823587,1.0235212
217,1437144379353,-1.1216835,11.159374,0.88046765
218,1437144379361,-0.56203884,11.052833,1.6591818
219,1437144379387,-0.7284359,11.546637,2.5031378
220,1437144379404,-1.0360907,12.233173,1.5472529
221,1437144379425,-0.5129577,12.108675,1.4161704
222,1437144379445,-0.350152,11.471817,0.66139823
223,1437144379463,0.38486794,12.29243,-0.3196259
224,1437144379483,3.8935704,13.760076,-2.006341
225,1437144379502,9.461287,17.05749,-2.801216
226,1437144379524,5.7496753,16.633717,-1.01574
227,1437144379547,2.9682117,15.682021,-0.2896984
228,1437144379685,2.428319,14.450204,0.81881696
229,1437144379686,0.46507367,12.634202,1.9261353
230,1437144379687,-0.5895722,11.567586,1.9416976
231,1437144379688,-0.022744916,9.426571,1.7651252
232,1437144379689,-0.17298107,7.756615,1.5280992
233,1437144379690,-0.0053869537,6.841431,0.66738373
234,1437144379691,-0.04189853,6.022016,0.08319851
235,1437144379723,-0.17238252,5.553351,-0.587178
236,1437144379724,-0.18495208,5.4964886,-0.34596214
237,1437144379742,0.35434186,5.4192758,-0.05566519
238,1437144379772,0.7152678,5.6431336,-0.20829555
239,1437144379796,1.5221137,5.840655,-0.5793968
240,1437144379803,1.9261353,5.997475,-0.8050503
241,1437144379829,2.7150247,6.645107,0.092775315
242,1437144379842,2.7898436,7.103596,0.545878
243,1437144379862,3.7630866,7.2029557,0.33399114
244,1437144379885,4.5980644,7.1700354,-0.06344634
245,1437144379905,5.9783216,7.387908,0.2160767
246,1437144379925,6.9725137,7.9529395,0.7188591
247,1437144379945,7.2849574,8.319851,0.8762778
248,1437144379965,7.073669,8.500613,0.3369839
249,1437144379985,6.5307837,8.600571,-0.022146367
250,1437144380005,6.711546,8.692149,-0.7763199
251,1437144380025,6.8043213,8.148665,-1.5466543
252,1437144380047,6.1225724,6.9342065,-2.2397757
253,1437144380064,5.873575,6.7360864,-4.981735
254,1437144380085,5.180454,11.48319,-1.7441759
255,1437144380102,2.3241713,15.047558,-2.5432408
256,1437144380123,4.1611223,16.778566,3.3794158
257,1437144380143,1.1258733,10.475829,5.379173
258,1437144380167,3.5715504,5.265448,-0.2124854
259,1437144380188,9.507974,9.43076,-4.9984946
260,1437144380208,6.183026,8.583812,0.13946225
261,1437144380225,4.8267107,11.155783,4.2371383
262,1437144380244,5.3438582,9.6528225,-2.0254946
263,1437144380264,4.1706996,9.740809,0.4261679
264,1437144380284,4.622605,10.126276,-0.88286185
265,1437144380304,4.658518,9.849746,-1.4508862
266,1437144380323,4.9482164,10.068815,-2.5306711
267,1437144380378,4.1293993,9.950901,-2.6755204
268,1437144380379,3.3117795,9.789292,-2.0398598
269,1437144380385,2.0410569,10.048465,-1.1971009
270,1437144380409,1.4814123,10.286089,-0.88405895
271,1437144380422,2.180519,9.821015,-0.5243302
272,1437144380444,1.9572599,9.287108,-0.41599256
273,1437144380463,1.2294226,9.284116,-0.6087258
274,1437144380488,-0.46986207,9.566033,-1.4706384
275,1437144380504,-0.45908818,9.633071,-1.8746599
276,1437144380523,0.25977087,9.700109,-1.7675194
277,1437144380549,0.7278373,10.144831,-1.578976
278,1437144380564,1.2240356,10.033501,-1.0366893
279,1437144380586,0.22625206,9.877279,-0.9355343
280,1437144380605,-0.96187055,10.474632,-1.6496049
281,1437144380625,-0.15442601,10.670957,-1.8848352
282,1437144380643,1.3102269,11.035474,-1.7238252
283,1437144380664,1.7004818,11.066599,-1.496376
284,1437144380682,1.1432313,11.779472,-1.7465701
285,1437144380706,1.1079168,12.945449,-1.3802572
286,1437144380726,-0.20350714,15.796943,0.374094
287,1437144380746,-2.2936451,17.990032,0.90620536
288,1437144380766,-3.8295257,19.144037,1.939902
289,1437144380784,-5.575497,18.429367,1.2868834
290,1437144380806,-4.4358573,15.049952,0.6751649
291,1437144380826,4.1503487,18.957289,-5.0703206
292,1437144380846,12.153566,19.608511,-3.7553053
293,1437144380866,9.279327,19.608511,-0.05746084
294,1437144380885,5.430648,18.722658,-2.4881742
295,1437144380906,7.1981673,16.141708,-2.955642
296,1437144380926,3.7481227,14.309545,-0.56922144
297,1437144380946,-0.19871874,9.554661,-0.05925649
298,1437144380966,-1.7681179,6.149507,0.17776948
299,1437144380986,-2.3277626,3.0627825,0.40880993
300,1437144381005,-1.7232267,1.3736732,0.57879823
301,1437144381024,-2.0548236,1.1665748,1.3533225
302,1437144381044,-2.7551277,0.38486794,1.6729485
303,1437144381116,-2.6683378,-0.8870517,1.7220296
304,1437144381129,-1.5382746,-0.9498995,2.0608091
305,1437144381130,-0.088585466,-0.10474633,2.1571758
306,1437144381131,1.9183542,0.24001873,1.0737995
307,1437144381144,5.6341553,0.2741361,-0.3298013
308,1437144381168,11.255741,-0.3728969,-1.839944
309,1437144381203,15.5599165,-0.51116204,-1.6095021
310,1437144381204,15.179238,-0.08619126,-2.842516
311,1437144381223,14.271237,0.95229375,-3.9683893
312,1437144381247,12.955026,1.2144588,-3.779846
313,1437144381264,10.808623,-1.6603789,-4.9733553
314,1437144381286,19.607914,13.6254015,-13.296199
315,1437144381306,0.16280572,16.555305,4.69084
316,1437144381323,-1.5622166,15.543756,-0.16160862
317,1437144381347,8.874707,11.993155,2.4420857
318,1437144381367,10.576984,8.714295,-2.030283
319,1437144381386,5.7023897,6.553529,-2.8742392
320,1437144381406,8.701726,9.709685,0.36631286
321,1437144381427,4.7746367,12.021287,-0.6679823
322,1437144381447,4.2479124,12.394184,-1.3575124
323,1437144381465,4.4939165,10.955269,-0.80086046
324,1437144381490,4.231153,11.602302,-0.26874915
325,1437144381503,3.091513,12.578537,-0.5638345
326,1437144381527,3.0532057,9.914988,0.30705637
327,1437144381547,4.4238863,7.805696,0.6691794
328,1437144381567,2.8323407,7.7931266,-0.18195933
329,1437144381589,0.825401,7.7308774,-1.3329718
330,1437144381691,0.7422025,8.313866,-1.6214731
331,1437144381692,-0.040102877,8.558074,-1.1049241
332,1437144381693,-2.3948002,9.598354,-2.5611973
333,1437144381694,-1.4083891,10.268132,-2.878429
334,1437144381695,0.42437226,9.824607,-1.1893197
335,1437144381705,0.3477578,11.361684,0.074220255
336,1437144381727,-0.23523031,13.170504,-0.5422867
337,1437144381745,-0.7200562,14.83567,-1.4981717
338,1437144381829,-0.6536171,15.278598,-1.4736311
339,1437144381830,0.504578,15.803527,-0.5943606
340,1437144381831,0.45130703,17.02457,0.7212533
341,1437144381832,-1.8381484,19.60133,0.40462008
342,1437144381844,-6.314707,19.608511,1.8088194
343,1437144381869,-7.845799,19.355923,3.0867245
344,1437144381884,-1.1779473,19.608511,-9.431359
345,1437144381905,11.612476,19.608511,-7.8452005
346,1437144381926,18.751986,19.608511,1.3174095
347,1437144381945,10.770316,18.555063,-3.34051
348,1437144381965,5.436035,14.264055,-4.4358573
349,1437144381987,1.5382746,12.272079,-1.0073603
350,1437144382007,-3.0107086,6.3865333,1.4119805
351,1437144382024,-6.2763996,1.5987282,0.51475334
352,1437144382047,-7.019201,-2.03567,0.5021838
353,1437144382067,-5.445013,-1.6244658,1.1438298
354,1437144382087,-4.1276035,-1.2952632,1.5705963
355,1437144382107,-3.8259344,-2.0626047,1.5574282
356,1437144382127,-2.4361002,-2.2451627,0.88645315
357,1437144382147,1.3754689,-2.5773582,0.22984336
358,1437144382167,7.016208,-3.1992521,-1.043872
359,1437144382185,11.456255,-2.7880478,-3.3997664
360,1437144382207,16.767193,-4.9416323,-3.6894648
361,1437144382227,18.130093,-4.559159,-2.2990322
362,1437144382246,17.316662,-3.2154129,-0.5129577
363,1437144382266,8.445546,-7.1844006,5.433641
364,1437144382287,19.607914,-7.2209125,-19.608511
365,1437144382307,9.677961,19.608511,13.913304
366,1437144382328,-3.7433343,19.608511,-0.504578
367,1437144382348,1.520318,14.358027,10.585364
368,1437144382368,12.814366,1.287482,-2.0811598
369,1437144382386,8.661623,5.230732,-3.4039562
370,1437144382406,5.3863554,13.579313,3.281852
371,1437144382426,5.732916,11.920132,-1.7651252
372,1437144382445,5.3276973,11.322779,-3.4302924
373,1437144382531,5.4863133,10.46326,-1.8375498
374,1437144382532,3.8055837,10.043077,-1.115698
375,1437144382533,1.1881226,8.22528,-0.8391677
376,1437144382535,1.1288661,7.1383123,-1.3617022
377,1437144382544,2.308609,9.350554,-0.60693014
378,1437144382565,1.5777789,10.28549,-0.23642741
379,1437144382586,-0.66858083,9.450513,-0.45669398
380,1437144382605,-0.84455466,8.843582,-1.620276
381,1437144382625,0.670975,8.708909,-2.0679917
382,1437144382645,2.0093338,9.150639,-2.3636756
383,1437144382670,0.9540894,9.685144,-2.7246015
384,1437144382686,0.03172317,11.145009,-2.135628
385,1437144382706,-0.12629414,12.633604,-0.54527944
386,1437144382727,-0.9504981,13.905523,0.25139117
387,1437144382748,-1.0875661,15.100829,0.5662287
388,1437144382768,0.16400282,17.052103,1.2306197
389,1437144382788,-0.56563014,19.595942,1.9590555
390,1437144382808,-4.289212,19.608511,0.24839842
391,1437144382828,-11.4837885,19.581577,1.4688427
392,1437144382848,-6.543952,18.839973,-7.6853876
393,1437144382868,14.932636,19.608511,-9.175778
394,1437144382888,19.607914,19.608511,0.8912416
395,1437144382908,13.384186,19.387648,-4.7901993
396,1437144382930,-0.85891986,13.415311,-3.413533
397,1437144382946,-2.0937295,9.552865,-0.97264445
398,1437144382968,-3.5577838,5.1020436,-0.84934306
399,1437144382985,-4.284424,1.9728222,-1.2695254
400,1437144383005,-4.7016134,-1.6340426,-0.87208796
401,1437144383025,-3.645172,-2.1386206,0.52852005
402,1437144383050,-3.1531637,-0.95947635,1.1324574
403,1437144383071,-4.144363,-1.8471266,1.3108255
404,1437144383091,-2.8939912,-2.5360582,0.6727707
405,1437144383108,0.059855044,-2.6737247,0.20231004
406,1437144383125,5.6221843,-2.5025394,-1.484405
407,1437144383145,11.30123,-1.6980876,-2.5552118
408,1437144383167,17.10298,-2.4899697,-1.4891934
409,1437144383187,19.607914,-3.3674448,-0.6745663
410,1437144383267,18.041508,-2.5258827,-0.6392518
411,1437144383268,12.421717,-3.0029275,1.4580688
412,1437144383269,16.177023,-12.711415,-10.085575
