id,attr_time,attr_x,attr_y,attr_z
1,1436540912211,-0.830788,9.679757,-0.6560113
2,1436540912231,-1.0636241,9.595961,-0.6691794
3,1436540912252,-1.110311,9.595961,-0.5674258
4,1436540912271,-0.98700964,9.636064,-0.58418524
5,1436540912291,-0.931943,9.624092,-0.64823014
6,1436540912311,-0.97264445,9.589376,-0.7224504
7,1436540912331,-1.0151415,9.56304,-0.7134721
8,1436540912351,-0.9947908,9.601347,-0.6655881
9,1436540912371,-0.99179804,9.610924,-0.6332663
10,1436540912391,-0.9959879,9.642049,-0.62129533
11,1436540912411,-1.002572,9.668385,-0.59615624
12,1436540912431,-1.0001777,9.634866,-0.6596026
13,1436540912451,-1.0223241,9.5809965,-0.6386533
14,1436540912471,-1.0013748,9.586384,-0.56084174
15,1436540912491,-1.0420763,9.653421,-0.5758055
16,1436540912511,-1.0791864,9.528324,-0.7194576
17,1436540912531,-1.0534488,9.484032,-0.5722142
18,1436540912551,-0.9151836,9.6845455,-0.5303157
19,1436540912571,-1.0055647,9.736021,-0.5530606
20,1436540912591,-1.086369,9.518148,-0.7140707
21,1436540912611,-1.1139023,9.501988,-0.6745663
22,1436540912631,-0.89303726,9.688137,-0.5141548
23,1436540912651,-0.8996213,9.713875,-0.5710171
24,1436540912671,-1.0714053,9.613917,-0.65182143
25,1436540912691,-1.1091139,9.610326,-0.50876784
26,1436540912711,-0.99538934,9.598953,-0.62488663
27,1436540912731,-0.91817635,9.595961,-0.7152678
28,1436540912751,-0.9708488,9.604341,-0.63087213
29,1436540912771,-1.0510546,9.661801,-0.51475334
30,1436540912791,-1.0313023,9.672575,-0.57041854
31,1436540912811,-1.0462662,9.558251,-0.66498953
32,1436540912831,-1.0336965,9.500791,-0.6619968
33,1436540912851,-0.93254155,9.606734,-0.6362591
34,1436540912871,-0.91338795,9.7240505,-0.5686229
35,1436540912891,-1.0324994,9.688736,-0.50038815
36,1436540912915,-1.1426327,9.599552,-0.5638345
37,1436540912931,-1.0295067,9.607931,-0.5979519
38,1436540912951,-0.9540894,9.626487,-0.6278794
39,1436540912971,-0.99179804,9.60853,-0.61530983
40,1436540912991,-1.0720038,9.592968,-0.5710171
41,1436540913011,-1.0534488,9.648633,-0.53929394
42,1436540913031,-1.0127473,9.685743,-0.4854244
43,1436540913051,-1.0420763,9.643246,-0.5482722
44,1436540913071,-1.0648212,9.585785,-0.5943606
45,1436540913091,-1.0372878,9.617508,-0.6051345
46,1436540913111,-1.0217255,9.61691,-0.5105635
47,1436540913132,-1.086369,9.555858,-0.5614403
48,1436540913153,-1.115698,9.494805,-0.5859809
49,1436540913172,-0.9876082,9.667787,-0.45789108
50,1436540913192,-0.9959879,9.713875,-0.44951138
51,1436540913212,-1.103727,9.527127,-0.635062
52,1436540913232,-1.1312603,9.485229,-0.6667852
53,1436540913252,-0.9708488,9.636064,-0.52852005
54,1436540913272,-0.8822633,9.755774,-0.47225627
55,1436540913292,-1.049259,9.59177,-0.53570265
56,1436540913312,-1.1749545,9.541492,-0.4961983
57,1436540913332,-1.1019313,9.574412,-0.480636
58,1436540913352,-0.98222125,9.553463,-0.5267244
59,1436540913372,-1.0474633,9.523536,-0.5279215
60,1436540913392,-1.103727,9.569624,-0.45789108
61,1436540913412,-1.0295067,9.579201,-0.48841715
62,1436540913432,-1.0067618,9.510966,-0.58777654
63,1436540913452,-0.9876082,9.485229,-0.6075287
64,1436540913472,-0.8595184,9.52174,-0.5518635
65,1436540913492,-0.9343372,9.598953,-0.42556936
66,1436540913512,-0.9911995,9.655217,-0.3393781
67,1436540913532,-1.0594343,9.670779,-0.40043023
68,1436540913552,-0.9660604,9.694122,-0.5093664
69,1436540913572,-0.85532856,9.717466,-0.4866215
70,1436540913592,-0.94690675,9.705495,-0.4297592
71,1436540913612,-1.0348936,9.633669,-0.3645172
72,1436540913632,-1.0684125,9.536704,-0.39324763
73,1436540913652,-1.0348936,9.497798,-0.5021838
74,1436540913672,-0.9151836,9.57561,-0.5315128
75,1436540913692,-0.83258367,9.702502,-0.4973954
76,1436540913712,-0.82779527,9.835381,-0.45370123
77,1436540913732,-0.86490536,9.8198185,-0.33758244
78,1436540913752,-0.91937345,9.704298,-0.41599256
79,1436540913772,-0.908001,9.529521,-0.38187516
80,1436540913792,-0.7577648,9.498995,-0.17956513
81,1436540913812,-0.9600749,9.546281,-0.36750996
82,1436540913832,-1.0522517,9.284714,-0.36631286
83,1436540913852,-1.0139444,9.227852,-0.19692309
84,1436540913872,-0.8355764,9.510367,-0.23223756
85,1436540913893,-0.8900445,9.601347,-0.3657143
86,1436540913913,-0.96067345,9.528324,-0.35793316
87,1436540913932,-0.8900445,9.533711,-0.30286652
88,1436540913953,-0.8170213,9.648034,-0.45370123
89,1436540913972,-0.7918822,9.739613,-0.5446809
90,1436540913992,-0.82240826,9.70789,-0.46926352
91,1436540914012,-0.88525605,9.675568,-0.42437226
92,1436540914032,-0.93493575,9.5971575,-0.5243302
93,1436540914052,-1.2479776,9.427768,-0.50996494
94,1436540914072,-1.3060371,9.27394,-0.5189432
95,1436540914092,-1.3670892,9.059659,-0.50757074
96,1436540914113,-1.6825253,8.9519205,-0.6015432
97,1436540914133,-2.124854,8.93935,-0.9624691
98,1436540914153,-2.5384524,9.337387,-1.5676036
99,1436540914173,-2.8179753,9.977237,-1.4873978
100,1436540914192,-2.3535004,10.426748,-0.41299978
101,1436540914214,-1.3180081,10.799645,0.090979666
102,1436540914233,-1.3186066,10.69849,-0.11492168
103,1436540914253,-1.6681601,10.485406,-0.7338228
104,1436540914273,-1.4796166,10.239402,-0.7146692
105,1436540914293,-1.2372037,9.809045,-0.24480712
106,1436540914313,-1.1061212,9.191938,-0.39205053
107,1436540914333,-1.2246342,8.610147,-0.7212533
108,1436540914353,-1.4047978,8.248025,-1.0648212
109,1436540914373,-1.5239093,8.170812,-1.0552444
110,1436540914393,-1.5215151,8.53054,-0.8367735
111,1436540914413,-1.5005659,9.0016,-0.79607207
112,1436540914433,-1.614889,8.869919,-1.0426749
113,1436540914453,-1.6077064,8.735844,-1.2096704
114,1436540914473,-1.4449008,9.023148,-1.1731589
115,1436540914493,-1.1264719,9.721058,-0.98222125
116,1436540914513,-1.1683705,9.768343,-0.8888474
117,1436540914533,-1.3868413,9.41879,-0.79846627
118,1436540914553,-1.6783354,9.141062,-0.91697925
119,1436540914573,-2.0213048,8.948928,-1.127669
120,1436540914593,-2.219425,8.950125,-1.0301052
121,1436540914613,-1.7232267,9.638457,-1.0905589
122,1436540914633,-1.4101849,10.388441,-1.3084313
123,1436540914653,-1.3940239,11.067198,-1.4526819
124,1436540914673,-1.441908,11.64001,-1.4670471
125,1436540914693,-1.5394717,12.249933,-1.5819688
126,1436540914713,-1.6484078,12.892178,-1.8992004
127,1436540914733,-1.6041151,14.503475,-2.5881321
128,1436540914753,-1.5340848,15.34803,-2.8909986
129,1436540914773,-1.3545196,15.49647,-3.0998926
130,1436540914793,-1.0630256,14.620193,-3.2956185
131,1436540914813,-0.38606504,13.705009,-3.3842041
132,1436540914835,0.62728083,12.08593,-3.4440591
133,1436540914853,2.0991163,10.5602255,-3.9773676
134,1436540914874,3.6128504,9.442133,-4.8644195
135,1436540914893,4.4514194,8.467693,-5.1505265
136,1436540914913,4.7279496,7.9427643,-4.780622
137,1436540914933,4.654927,8.242638,-4.256891
138,1436540914953,3.5416229,9.029133,-3.4243069
139,1436540914973,2.60549,8.949526,-3.196858
140,1436540914993,1.7124528,8.43178,-2.710835
141,1436540915013,0.8146271,7.6650367,-1.9871874
142,1436540915033,-0.7978677,6.6600704,1.4359225
143,1436540915053,-2.3373394,5.4659624,3.6445735
144,1436540915073,-2.8820202,4.5435963,1.3006501
145,1436540915093,-2.40318,4.173692,-1.6484078
146,1436540915113,-1.1976994,4.349067,-2.504335
147,1436540915133,-0.42796355,4.398747,-1.3066356
148,1436540915153,0.015562311,4.5579615,-0.11312603
149,1436540915174,0.5303157,5.0397944,0.8475474
150,1436540915194,0.018555064,5.8065376,0.46447513
151,1436540915214,-0.682946,7.0066314,-0.14664486
152,1436540915234,-1.3323733,9.109938,-0.40521863
153,1436540915254,-1.9698294,12.636597,-0.8762778
154,1436540915274,-1.769315,16.65287,-1.4317327
155,1436540915293,-0.4782418,17.83381,-1.9991584
156,1436540915314,0.57400984,16.603788,-1.8291701
157,1436540915334,0.0724246,16.585234,-1.2850877
158,1436540915354,-0.22146365,17.260998,-1.2467805
159,1436540915374,-0.1400608,16.724695,-1.8980033
160,1436540915394,-1.2802993,14.568119,-2.6509798
161,1436540915414,-2.31639,10.585963,-3.0963013
162,1436540915434,-2.3714569,8.432977,-3.1465795
163,1436540915454,-2.1057005,7.253833,-3.1998506
164,1436540915474,-1.7292122,7.1700354,-3.2477345
165,1436540915494,-1.3946224,8.034941,-3.4542346
166,1436540915514,-0.8846575,9.019556,-3.1711202
167,1436540915534,-0.27234045,9.041104,-2.5103204
168,1436540915554,-0.1592144,8.0445175,-2.1242554
169,1436540915574,-0.27353755,7.0371575,-1.9937714
170,1436540915594,-0.32621,6.3230867,-1.881244
171,1436540915614,-0.32561144,5.7843914,-1.4688427
172,1436540915634,-0.10175357,5.221155,0.79367787
173,1436540915654,0.25857377,5.064934,0.84575176
174,1436540915674,0.44232875,4.8656163,-0.43514615
175,1436540915694,0.46866497,4.5896845,-1.4155718
176,1436540915714,0.52971715,4.457405,-1.6825253
177,1436540915734,0.6745663,4.7297454,-1.3557167
178,1436540915754,0.7793127,5.6964045,-1.062427
179,1436540915774,0.78050977,7.5094137,-0.84575176
180,1436540915794,0.5291186,10.421362,-0.6039374
181,1436540915814,-0.3764882,15.3767605,-1.5209166
182,1436540915834,-2.7269957,19.608511,-2.260725
183,1436540915854,-4.900931,16.724098,-1.0618285
184,1436540915874,-3.793014,13.751696,-2.3744495
185,1436540915894,-3.4572272,16.233286,-3.6457705
186,1436540915914,-1.816002,17.507002,-2.597709
187,1436540915934,-0.091578215,14.823101,-1.2437878
188,1436540915954,1.2366052,11.200075,-1.4628572
189,1436540915974,3.016694,8.919,-3.7014358
190,1436540915994,5.1277814,8.185177,-5.1050367
191,1436540916014,6.242881,7.716512,-4.853047
192,1436540916034,6.149507,6.897695,-3.7828386
193,1436540916054,5.269638,6.2883706,-3.0280666
194,1436540916074,3.3303347,6.7342906,-3.6349967
195,1436540916095,1.9153614,7.404069,-3.530849
196,1436540916114,0.39863458,8.446744,-3.083732
197,1436540916134,-3.0400376,8.916007,2.9257145
198,1436540916154,-6.1345434,7.6608467,8.095394
199,1436540916175,-3.8588545,5.5743003,1.1899183
200,1436540916195,-1.6663644,4.481347,-3.570952
201,1436540916215,-0.95708215,3.5889084,-3.4183214
202,1436540916235,-0.6560113,2.8760347,-2.15538
203,1436540916255,-0.2885013,2.5917234,-1.0450691
204,1436540916275,0.2124854,3.027468,-0.46746787
205,1436540916294,0.74399817,4.560954,-0.6991069
206,1436540916314,0.62967503,8.579621,0.56982
207,1436540916335,-0.39145198,12.316971,2.292448
208,1436540916354,-2.2409728,15.960347,0.8984242
209,1436540916375,-2.9358897,18.276138,-3.0232782
210,1436540916395,-0.35254622,18.365921,-4.807557
211,1436540916415,0.84096336,17.335815,-1.673547
212,1436540916435,0.30286652,17.249624,0.6997054
213,1436540916455,0.29747957,17.137695,-1.751957
214,1436540916475,-0.7224504,15.155895,-4.047398
215,1436540916495,-1.6412252,12.223597,-3.5877113
216,1436540916515,-2.046444,9.750985,-3.1310172
217,1436540916535,-2.309806,7.3753386,-3.5224693
218,1436540916555,-2.6007016,6.7863646,-3.4763808
219,1436540916575,-2.9538465,7.2227077,-3.0119057
220,1436540916595,-2.878429,8.662222,-2.2002714
221,1436540916615,-1.917157,9.471462,-1.2755109
222,1436540916635,-1.3401544,8.4234,-0.6823475
223,1436540916655,-0.866701,7.2071457,0.62728083
224,1436540916675,-0.5315128,6.3913217,0.97144735
225,1436540916695,-0.47225627,5.851429,-0.2717419
226,1436540916715,-0.48362875,5.393538,-1.3796587
227,1436540916735,-0.41718966,4.88477,-1.5448587
228,1436540916755,-0.18495208,4.3742065,-1.1899183
229,1436540916775,-0.01616086,3.8857894,-0.98940384
230,1436540916795,0.21667525,3.9121256,-0.7882909
231,1436540916815,0.3585317,4.7255554,-0.5009867
232,1436540916835,0.034715924,6.6534867,-0.10055647
233,1436540916855,-0.48841715,9.531916,0.2136825
234,1436540916875,-1.8555063,14.304756,-1.0803835
235,1436540916895,-3.5577838,19.546862,-3.3249476
236,1436540916915,-3.3279405,19.121292,-2.8335378
237,1436540916935,-1.4502877,14.219164,-2.3139958
238,1436540916955,-0.83976626,13.96059,-3.7415388
239,1436540916975,-1.3694834,16.418238,-4.2634745
240,1436540916995,0.1412579,14.855423,-2.2511482
241,1436540917015,1.5688007,11.953052,-2.144606
242,1436540917035,3.352481,10.028113,-3.2860417
243,1436540917055,4.9877205,8.899248,-3.9995139
244,1436540917075,5.864597,8.016386,-3.9731777
245,1436540917095,5.939416,7.2981253,-3.441665
246,1436540917115,5.386954,6.8085113,-2.822764
247,1436540917135,4.31495,6.8605847,-2.9999347
248,1436540917155,3.0992942,7.120356,-3.3746274
249,1436540917175,1.8435353,7.6470804,-3.503914
250,1436540917196,0.60453594,8.476671,-3.0556
251,1436540917215,-3.2273839,8.467094,5.109825
252,1436540917235,-3.5416229,6.7348895,5.507861
253,1436540917255,-2.110489,4.5795093,-0.6985083
254,1436540917275,-1.2090719,3.4141316,-3.3638535
255,1436540917295,-0.7691373,2.6084828,-3.1741128
256,1436540917315,-0.65780693,2.1733365,-2.086547
257,1436540917335,-0.5542577,2.8275523,-1.3599066
258,1436540917356,-0.28550854,5.1840453,-1.6346412
259,1436540917376,0.089782566,8.653842,-2.284667
260,1436540917396,0.2657564,13.313557,-2.1338322
261,1436540917416,-0.52732295,18.415602,2.8167782
262,1436540917436,-0.59495914,17.542915,0.6973112
263,1436540917456,0.8295909,16.301521,-5.5246205
264,1436540917476,0.38067806,16.179417,-5.097854
265,1436540917498,-0.63087213,16.50802,-1.8896236
266,1436540917516,-0.40102878,15.947778,-1.2395979
267,1436540917536,-0.49320555,13.01129,-2.3540988
268,1436540917556,-0.76554596,10.049063,-3.496133
269,1436540917576,-1.3856442,7.6800003,-4.264672
270,1436540917596,-2.2972364,6.2099605,-4.1916485
271,1436540917616,-3.3033998,6.1423244,-3.4446578
272,1436540917636,-3.532046,8.0445175,-2.6898856
273,1436540917656,-1.7884687,9.947908,-1.7723078
274,1436540917676,-0.23822308,8.509591,-0.6889315
275,1436540917696,-0.24779987,6.9090676,0.29209262
276,1436540917716,-0.10594343,6.078878,2.44448
277,1436540917744,-0.30166942,5.7143607,1.4532804
278,1436540917762,-0.38067806,5.2355204,-0.75956047
279,1436540917776,-0.47046062,4.657321,-2.0727801
280,1436540917796,-0.3333926,4.1258082,-2.2200236
281,1436540917816,0.05207389,3.8720226,-1.5496471
282,1436540917836,0.57999533,4.210802,-0.87448215
283,1436540917856,0.86011696,5.043386,-0.533907
284,1436540917876,0.54168814,6.455965,-0.55725044
285,1436540917896,-0.44352585,10.280702,-0.7942764
286,1436540917916,-1.721431,15.431827,-1.7579426
287,1436540917936,-3.2908301,19.608511,-2.0177135
288,1436540917956,-2.593519,18.647839,-0.24779987
289,1436540917976,-1.1875241,14.122797,-1.6903064
290,1436540917996,-1.7022774,14.2383175,-4.4687777
291,1436540918016,-2.0380642,16.465523,-4.791396
292,1436540918036,-0.47046062,15.13315,-2.7036524
293,1436540918056,1.1534066,12.461222,-1.5125369
294,1436540918076,2.9921536,10.529699,-2.712032
295,1436540918098,5.157709,9.416994,-3.9432502
296,1436540918116,6.871359,8.030751,-3.515885
297,1436540918136,6.6522894,6.8581905,-2.5342624
298,1436540918157,5.886145,6.0968347,-2.393603
299,1436540918176,4.785411,6.3584013,-2.843713
300,1436540918196,3.5170822,6.830059,-2.8904
301,1436540918216,2.3038206,7.3950906,-2.4899697
302,1436540918236,0.7200562,7.8912888,-1.0408791
303,1436540918257,-1.4293385,8.178593,3.8432922
304,1436540918277,-2.4690206,7.3645644,3.435081
305,1436540918296,-3.1609447,5.4324436,-1.1522095
306,1436540918316,-2.717419,4.4568067,-3.2956185
307,1436540918336,-1.934515,4.1341877,-3.176507
308,1436540918356,-0.9451111,4.9637785,-1.8435353
309,1436540918376,-0.37349546,6.745663,-1.3305776
310,1436540918396,-0.008379706,9.086594,-0.3489549
311,1436540918417,-0.4285621,11.544841,2.070386
312,1436540918437,-0.58418524,14.029424,2.5049336
313,1436540918457,-0.3333926,15.431229,-1.103727
314,1436540918477,0.3357868,15.490485,-3.8750155
315,1436540918497,0.1388637,13.647549,-2.670732
316,1436540918517,-0.82779527,13.22138,-0.65660983
317,1436540918537,-0.50517654,14.03481,-1.846528
318,1436540918557,-0.52073884,13.984532,-3.5972881
319,1436540918577,-1.7202339,12.233772,-3.685275
320,1436540918597,-1.8842367,10.6398325,-3.9294837
321,1436540918617,-2.119467,9.52593,-3.9390604
322,1436540918637,-2.581548,9.124901,-3.4913447
323,1436540918657,-2.7934349,9.073426,-2.7246015
324,1436540918677,-2.3349452,8.811859,-2.0027497
325,1436540918697,-1.6944963,8.002619,-1.3563153
326,1436540918717,-1.3108255,6.991069,-0.7116765
327,1436540918737,-0.92176765,6.1644707,-0.09935937
328,1436540918757,-0.5746084,5.723339,0.044891283
329,1436540918777,-0.29688102,5.539584,-0.4225766
330,1436540918797,-0.06344634,5.1756654,-1.3335704
331,1436540918817,0.078410104,4.9039235,-1.5161282
332,1436540918837,0.18614918,4.8440685,-1.447295
333,1436540918857,0.34117374,5.1481323,-1.3078327
334,1436540918877,0.3429694,5.7909756,-1.0205284
335,1436540918897,0.20231004,6.747459,-0.65541273
336,1436540918917,-0.08559271,8.230667,-0.4345476
337,1436540918937,-0.5398925,10.45907,-0.14664486
338,1436540918957,-1.3964181,13.749901,-0.6703765
339,1436540918977,-2.2888567,17.364546,-1.9919758
340,1436540918997,-2.3750482,18.210897,-2.3421278
341,1436540919017,-1.13964,15.0715,-2.802413
342,1436540919037,-1.264737,15.103223,-4.0462008
343,1436540919057,-0.42556936,15.38095,-2.8880057
344,1436540919077,0.48841715,14.2143755,-1.4239515
345,1436540919097,1.0869676,11.732785,-1.4059949
346,1436540919117,1.6962919,9.383475,-2.207454
347,1436540919137,2.8886044,8.350377,-3.0262709
348,1436540919161,4.2413282,7.9990277,-3.359065
349,1436540919177,5.1529207,7.583634,-3.2968156
350,1436540919197,5.337274,7.091625,-2.9825768
351,1436540919217,4.583699,6.5487404,-2.5169046
352,1436540919237,3.3321302,6.359598,-2.0368671
353,1436540919257,1.287482,6.579865,-1.1228806
354,1436540919277,-0.06344634,6.757634,0.14604631
355,1436540919297,-1.021127,6.682217,0.87448215
356,1436540919317,-1.3479356,6.2195373,0.076015905
357,1436540919337,-1.2198458,5.5587378,-1.3862427
358,1436540919357,-0.78170687,4.9865236,-2.4091654
359,1436540919378,0.16101007,5.7867856,-2.5797524
360,1436540919397,0.46447513,7.4028716,-1.8848352
361,1436540919417,0.7625532,8.818443,-0.57640404
362,1436540919438,1.3072342,9.594165,0.6087258
363,1436540919458,1.0151415,9.1033535,0.5895722
364,1436540919478,-0.3489549,8.5700445,-0.6907272
365,1436540919498,-0.47165772,9.00579,-1.1336545
366,1436540919518,0.10295067,9.419388,-1.0307038
367,1436540919538,0.54527944,9.671976,-0.6015432
368,1436540919558,0.6135142,10.202292,-0.5770026
369,1436540919578,0.7433996,10.86788,-0.99299514
370,1436540919598,0.78649527,11.323377,-1.3174095
371,1436540919618,0.62129533,11.446678,-0.9935937
372,1436540919638,0.39564183,11.614272,-0.28311434
373,1436540919658,0.15682021,12.0805435,-0.17537527
374,1436540919690,-0.32321724,12.503119,-1.5658079
375,1436540919698,-1.0666169,12.949638,-3.157952
376,1436540919718,-1.9560628,12.160749,-1.7423803
377,1436540919738,-1.9740193,10.444705,-1.0899603
378,1436540919758,-0.8230068,9.045893,-1.8219875
379,1436540919778,-0.729633,7.7560163,-2.4953568
380,1436540919798,-1.1725603,7.0808516,-3.2148144
381,1436540919819,-1.3964181,7.294534,-3.863643
382,1436540919838,-1.7591397,7.8703394,-3.4368765
383,1436540919858,-2.420538,8.893262,-2.1206641
384,1436540919878,-3.1316159,9.585187,0.3824737
385,1436540919898,-2.396596,9.254189,2.0015526
386,1436540919918,-1.3449428,8.6334915,0.79966336
387,1436540919938,-1.0989386,7.7183075,-1.4215573
388,1436540919958,-0.48602295,7.3537903,-1.8818425
389,1436540919978,0.31364042,7.380127,-1.6741456
390,1436540919998,0.9708488,7.9289975,-1.0923545
391,1436540920018,0.82779527,8.5538845,-0.78649527
392,1436540920038,-0.26635495,8.597578,-0.96306765
393,1436540920058,-0.93254155,8.868123,-1.1228806
394,1436540920078,-1.5221137,9.49301,-0.66738373
395,1436540920098,-2.191293,10.167576,-0.12808979
396,1436540920119,-2.7629087,10.408194,0.074818805
397,1436540920143,-2.5701754,10.436924,0.047884032
398,1436540920158,-1.2306197,10.340557,-0.58538234
399,1436540920178,-0.7146692,10.163984,-1.2611457
400,1436540920199,-0.3298013,10.424355,-1.3293805
401,1436540920218,-0.6392518,10.832565,-0.7338228
402,1436540920238,-0.9576807,11.081563,-0.41599256
403,1436540920258,-1.3862427,11.729194,-1.4951789
404,1436540920279,-1.7926586,13.054983,-2.5899277
405,1436540920298,-0.81881696,13.63438,-1.2264298
406,1436540920318,0.47046062,13.041217,1.049259
407,1436540920338,2.0380642,10.5285015,-0.25198972
