id,attr_time,attr_x,attr_y,attr_z
1,1436540912276,-8.854357,3.1130607,2.2260091
2,1436540912277,-8.756793,3.108871,2.2397757
3,1436540912278,-8.887277,3.093907,2.2296004
4,1436540912279,-8.872313,3.0639796,2.1888988
5,1436540912293,-8.813056,3.0550013,2.2260091
6,1436540912317,-8.932168,3.0358477,2.2709002
7,1436540912332,-8.919599,3.0454245,2.224812
8,1436540912352,-8.79929,3.0556,2.2720973
9,1436540912386,-8.878897,3.0573955,2.2852654
10,1436540912390,-8.895058,3.0753522,2.273893
11,1436540912418,-8.748413,3.0639796,2.296638
12,1436540912432,-8.709507,3.12982,2.28347
13,1436540912456,-8.822035,3.1453824,2.2415714
14,1436540912473,-8.841787,3.1759086,2.2200236
15,1436540912493,-8.880095,3.1771057,2.1930888
16,1436540912513,-8.761581,3.2028434,2.1691468
17,1436540912533,-8.814254,3.165733,2.2068555
18,1436540912553,-8.903438,3.180697,2.1906946
19,1436540912573,-8.847773,3.181894,2.2122424
20,1436540912593,-8.744822,3.2381577,2.2176294
21,1436540912613,-8.787319,3.2040405,2.2290018
22,1436540912634,-8.878897,3.1854854,2.2284033
23,1436540912651,-8.801684,3.1848867,2.2266076
24,1436540912674,-8.74961,3.1741128,2.2517467
25,1436540912692,-8.804677,3.1399956,2.2403743
26,1436540912710,-8.831612,3.1094694,2.2415714
27,1436540912733,-8.826224,3.0933087,2.2511482
28,1436540912756,-8.849568,3.0867245,2.2667105
29,1436540912780,-8.81605,3.0735564,2.296638
30,1436540912797,-8.86932,3.0735564,2.2786815
31,1436540912813,-8.811859,3.1124623,2.2164323
32,1436540912833,-8.825626,3.1423898,2.19668
33,1436540912850,-8.831612,3.1501708,2.1619642
34,1436540912876,-8.860342,3.145981,2.19249
35,1436540912997,-8.852561,3.1453824,2.2140381
36,1436540912998,-8.7609825,3.108871,2.2319946
37,1436540912999,-8.852561,3.1040826,2.2511482
38,1436540913000,-8.931569,3.0867245,2.2421699
39,1436540913001,-8.867524,3.0963013,2.2451627
40,1436540913002,-8.825027,3.1106665,2.2511482
41,1436540913011,-8.839992,3.1184478,2.2427685
42,1436540913031,-8.801085,3.1358056,2.2242134
43,1436540913051,-8.720282,3.105878,2.2296004
44,1436540913073,-8.7951,3.0909145,2.243367
45,1436540913092,-8.88608,3.0095115,2.2625206
46,1436540913112,-8.772355,2.9592333,2.331354
47,1436540913133,-8.789713,2.9311013,2.3343468
48,1436540913154,-8.887876,2.9963434,2.3139958
49,1436540913174,-8.875306,3.0388405,2.2828712
50,1436540913191,-8.889671,3.0986955,2.2511482
51,1436540913226,-8.798691,3.0597897,2.2343888
52,1436540913231,-8.799889,3.1184478,2.2810757
53,1436540913252,-9.032125,3.0508115,2.3343468
54,1436540913274,-8.902241,3.1028855,2.3660698
55,1436540913294,-8.750209,3.2495303,2.3798366
56,1436540913314,-8.809465,3.292626,2.3810337
57,1436540913334,-8.744224,3.156755,2.4145525
58,1436540913353,-8.817844,3.0759506,2.4504654
59,1436540913373,-8.93935,2.9346926,2.4462755
60,1436540913395,-9.188946,2.7617116,2.5145104
61,1436540913414,-9.270947,2.6048915,2.6485856
62,1436540913434,-9.185953,2.5079262,2.7730842
63,1436540913453,-9.027337,2.3756466,2.9173348
64,1436540913474,-8.907029,2.4762032,2.8874073
65,1436540913494,-8.398261,3.086126,2.7682958
66,1436540913515,-8.111555,3.7235823,2.6234465
67,1436540913534,-8.095993,3.965995,2.4073699
68,1436540913552,-7.968502,4.322731,2.2158337
69,1436540913572,-8.013393,4.620809,2.0398598
70,1436540913593,-7.9930425,4.6740804,2.0027497
71,1436540913614,-7.9667063,4.6962266,1.9393034
72,1436540913640,-8.109759,4.706402,1.8405426
73,1436540913701,-8.132504,4.56694,1.8620903
74,1436540913702,-8.295909,4.5382094,1.7932571
75,1436540913703,-8.300098,4.5046906,1.7459716
76,1436540913724,-8.344392,4.4220905,1.7435774
77,1436540913739,-8.39048,4.286818,1.769315
78,1436540913754,-8.350377,4.214992,1.7495629
79,1436540913778,-8.274361,4.1078515,1.7142484
80,1436540913800,-8.013991,4.0958805,1.6118963
81,1436540913814,-7.913435,4.0438066,1.4909891
82,1436540913844,-8.094796,4.1186256,1.5239093
83,1436540913865,-8.723274,4.374805,1.5897499
84,1436540913873,-9.579201,4.4179006,1.520318
85,1436540913892,-9.554062,4.185065,1.0971429
86,1436540913912,-8.98903,4.5232453,1.0085574
87,1436540913934,-9.919178,4.3879733,0.81402856
88,1436540913954,-10.017939,4.2850223,0.7637503
89,1436540913972,-9.620501,4.1718965,0.92296475
90,1436540913994,-9.333796,3.9103298,1.1150994
91,1436540914015,-8.941146,3.904943,1.2737153
92,1436540914035,-8.4234,3.7834373,1.3491327
93,1436540914055,-7.964312,3.7355533,1.4407109
94,1436540914074,-7.7230964,3.7014358,1.5831659
95,1436540914095,-7.915829,3.6296098,1.7657237
96,1436540914116,-7.9673047,3.5727475,1.8698715
97,1436540914134,-7.7087307,3.6954503,1.8608932
98,1436540914154,-7.607576,3.7122097,1.8902222
99,1436540914173,-7.8302364,3.8827965,1.7471687
100,1436540914191,-7.650073,4.417302,1.4987702
101,1436540914213,-7.268198,5.1744685,1.4574703
102,1436540914234,-6.999449,5.391742,1.4879963
103,1436540914260,-7.129334,5.1822495,1.4634558
104,1436540914279,-7.7129207,5.2768207,1.2084733
105,1436540914294,-8.065467,5.3701944,0.95109665
106,1436540914313,-8.58022,5.1319714,0.6973112
107,1436540914334,-9.485229,4.935048,0.5351041
108,1436540914353,-10.315418,4.689044,0.374094
109,1436540914377,-10.523713,4.8536453,0.3752911
110,1436540914434,-11.077971,5.193622,0.6326678
111,1436540914435,-12.0805435,5.3899465,0.9403227
112,1436540914436,-12.700043,5.795764,1.3036429
113,1436540914454,-12.73416,6.439804,1.7435774
114,1436540914474,-12.862848,7.3208704,2.0841527
115,1436540914497,-12.776657,7.8811135,2.4109612
116,1436540914513,-11.356895,8.019978,2.5300727
117,1436540914534,-9.941324,8.322844,2.6677392
118,1436540914554,-8.738237,8.486248,2.7748797
119,1436540914573,-7.4046674,8.160637,3.0250738
120,1436540914595,-6.962937,7.3645644,3.2680852
121,1436540914614,-7.026982,6.4266357,3.3411086
122,1436540914636,-6.443395,5.9621606,3.6212301
123,1436540914655,-6.597821,5.7496753,3.8642416
124,1436540914675,-7.24665,5.4138885,3.7942111
125,1436540914697,-6.849811,5.0601454,3.3620577
126,1436540914715,-5.631162,4.7058034,2.7563248
127,1436540914733,-4.4161053,4.309563,2.1649568
128,1436540914760,-3.6553473,4.0282445,1.7100586
129,1436540914773,-3.8660371,3.7343562,1.3970166
130,1436540914794,-4.4556093,3.309984,1.0929531
131,1436540914816,-4.565144,2.8311436,0.8858546
132,1436540914834,-4.43885,2.4319103,0.8726865
133,1436540914856,-4.1102457,2.3750482,1.0115502
134,1436540914875,-3.9959226,2.4875755,1.146224
135,1436540914896,-4.6818614,2.718616,1.4706384
136,1436540914915,-5.861604,3.2758665,1.9309237
137,1436540914935,-7.1395097,4.024653,2.6198552
138,1436540914956,-8.302493,4.8757915,3.1711202
139,1436540915014,-9.320028,5.7496753,3.6403837
140,1436540915015,-10.827777,6.2165446,4.011485
141,1436540915016,-13.0041065,6.2446766,4.3885717
142,1436540915034,-14.850036,6.4463882,4.687248
143,1436540915055,-15.198392,6.9024835,4.633379
144,1436540915074,-13.653534,7.9272017,3.954024
145,1436540915094,-12.507908,9.3343935,3.1549592
146,1436540915183,-11.008539,8.381501,1.875857
147,1436540915184,-7.7572136,7.48607,0.9343372
148,1436540915185,-5.2397103,6.906075,-0.053869538
149,1436540915186,-6.3643866,6.2704144,0.09935937
150,1436540915193,-9.450513,5.1942205,0.09935937
151,1436540915220,-8.951322,4.883573,0.23762453
152,1436540915240,-6.7851677,4.732738,0.33159694
153,1436540915254,-5.79337,4.583699,0.5823896
154,1436540915274,-5.871181,4.3783965,0.8038532
155,1436540915295,-5.976526,4.1706996,0.9576807
156,1436540915314,-5.466561,3.858256,0.985214
157,1436540915335,-4.609437,3.615843,0.94810385
158,1436540915354,-4.0258503,3.4153287,0.99658644
159,1436540915373,-3.816956,3.1681273,0.99658644
160,1436540915396,-3.6942532,2.9287071,0.98581254
161,1436540915416,-3.7152026,2.883816,1.0097545
162,1436540915437,-4.1216183,3.311181,1.1085154
163,1436540915456,-5.113416,3.9151182,1.3754689
164,1436540915476,-6.725911,4.7758336,1.4520833
165,1436540915496,-8.641273,5.7520695,1.4622587
166,1436540915518,-10.340557,6.599617,1.8920178
167,1436540915537,-12.114062,7.009624,2.420538
168,1436540915556,-13.621212,7.3484035,3.3195608
169,1436540915573,-13.621212,8.000824,3.591901
170,1436540915596,-13.181876,8.700529,4.0587707
171,1436540915616,-14.185046,8.249222,4.2610803
172,1436540915637,-13.259687,7.4190326,3.318962
173,1436540915656,-9.19553,7.4884644,2.984971
174,1436540915675,-6.0399723,7.4322004,3.0573955
175,1436540915696,-5.8065376,7.8422074,3.892972
176,1436540915722,-8.02716,6.9168487,4.0174704
177,1436540915740,-6.1716533,6.5367694,4.0414124
178,1436540915755,-4.8135424,5.901707,3.684078
179,1436540915775,-5.5006785,5.1182046,3.389591
180,1436540915795,-6.432023,4.5076833,3.0998926
181,1436540915815,-6.3087215,4.0623617,2.7090392
182,1436540915846,-5.7323174,3.6727054,2.0614076
183,1436540915916,-5.08708,3.2603042,1.5047557
184,1436540915917,-4.4125137,3.003526,1.1270704
185,1436540915918,-3.8600516,2.878429,0.8678981
186,1436540915919,-3.6870706,2.777274,0.89303726
187,1436540915935,-4.010288,2.8329391,0.8511387
188,1436540915954,-3.9067385,3.3255463,0.6183026
189,1436540915973,-3.7834373,3.9067385,0.700304
190,1436540915993,-4.373608,4.4801497,1.1270704
191,1436540916020,-5.9448028,5.0140567,1.7328035
192,1436540916034,-7.213131,5.7843914,2.2481554
193,1436540916056,-8.234259,6.096236,3.165733
194,1436540916075,-9.704298,6.0758853,4.0276456
195,1436540916095,-12.067974,6.2524576,4.950012
196,1436540916117,-14.557943,6.367978,5.2618566
197,1436540916135,-15.068507,7.0227923,5.139154
198,1436540916158,-14.213777,7.565677,5.0667295
199,1436540916177,-13.9516115,7.820061,5.0757074
200,1436540916197,-11.127052,6.766014,3.50571
201,1436540916216,-7.1981673,6.3703723,2.0937295
202,1436540916234,-5.3300915,5.6760535,0.6691794
203,1436540916257,-7.6464815,5.910087,0.85473
204,1436540916277,-11.057621,4.6830587,0.54647654
205,1436540916299,-9.384073,4.4161053,0.78410107
206,1436540916316,-6.7348895,4.284424,0.80564886
207,1436540916336,-6.951565,3.578733,1.1629834
208,1436540916355,-7.0784574,3.098097,1.2503718
209,1436540916377,-6.443994,2.9095535,1.1875241
210,1436540916396,-5.5312047,2.7898436,0.8607155
211,1436540916418,-4.667496,2.7389667,0.59615624
212,1436540916439,-4.3448777,2.5127146,0.38845924
213,1436540916458,-4.2119994,2.343325,0.41120413
214,1436540916477,-4.5196543,2.1990743,0.623091
215,1436540916496,-4.957793,2.5420437,0.57879823
216,1436540916515,-5.3396683,3.6415808,0.9487024
217,1436540916547,-6.631939,4.377199,1.3156139
218,1436540916563,-8.773552,5.1140146,1.8351556
219,1436540916636,-10.355521,6.0740895,2.4235306
220,1436540916637,-10.6954975,6.630143,3.0478187
221,1436540916638,-11.602302,7.0545154,3.8241386
222,1436540916639,-13.156737,7.4429746,4.110844
223,1436540916658,-13.296199,8.074445,4.179079
224,1436540916675,-12.8209505,8.505402,4.7004166
225,1436540916694,-12.235568,7.5572977,4.168904
226,1436540916715,-8.77834,7.5070195,3.6703112
227,1436540916785,-6.0010667,7.897873,3.0268695
228,1436540916786,-6.628946,8.071452,3.5859156
229,1436540916795,-8.528147,7.2687964,3.7612908
230,1436540916796,-6.581062,6.885724,3.5392287
231,1436540916816,-4.4262805,6.4763155,3.086126
232,1436540916834,-4.51726,5.9041014,2.7012582
233,1436540916854,-6.2351,5.3115363,2.4462755
234,1436540916877,-6.618172,4.7058034,1.9434932
235,1436540916897,-5.723339,4.2185836,1.435324
236,1436540916917,-4.7734394,3.693056,0.9900024
237,1436540916938,-3.9683893,3.2782607,0.7649474
238,1436540916956,-3.3608606,3.1465795,0.60812724
239,1436540916977,-3.0831332,3.247136,0.52492875
240,1436540916997,-3.301604,3.435081,0.6099229
241,1436540917019,-3.9121256,3.9761705,0.7278373
242,1436540917034,-4.613028,4.742315,1.0115502
243,1436540917054,-5.5964465,5.554548,1.6346412
244,1436540917077,-6.7642183,6.3631897,2.2691047
245,1436540917096,-7.5453267,7.499837,2.7886465
246,1436540917118,-8.8777,8.284536,3.4644098
247,1436540917138,-10.527305,8.486847,3.888782
248,1436540917156,-11.233594,8.98903,3.8696284
249,1436540917178,-11.651382,9.6845455,3.8085763
250,1436540917198,-11.980585,10.642825,3.1848867
251,1436540917219,-12.516887,10.737396,2.5635915
252,1436540917238,-9.980828,8.462306,1.0313023
253,1436540917259,-6.1387334,7.491457,0.16639702
254,1436540917275,-5.601235,6.517616,-0.4261679
255,1436540917298,-9.120711,5.9771247,-0.16220717
256,1436540917349,-10.5440645,4.96318,-0.39743748
257,1436540917364,-8.007407,5.0876784,-0.04369418
258,1436540917365,-6.1985884,4.9943047,-0.15622166
259,1436540917375,-6.156091,4.5501804,0.27712885
260,1436540917403,-6.5307837,4.2754455,0.46986207
261,1436540917417,-5.9651537,4.0258503,0.51475334
262,1436540917436,-5.027225,3.8642416,0.39025488
263,1436540917456,-4.2401314,3.7116113,0.21547815
264,1436540917478,-3.8391025,3.6697125,0.06404489
265,1436540917498,-3.8067808,3.7511156,-0.06284779
266,1436540917518,-3.8851907,3.9695864,0.0077811554
267,1436540917536,-4.155137,4.140772,0.29867667
268,1436540917557,-4.657321,4.7536874,0.7044938
269,1436540917576,-5.971139,5.771223,1.1881226
270,1436540917598,-8.053496,6.619369,1.6053122
271,1436540917618,-9.327211,7.2550297,1.9033904
272,1436540917638,-9.460688,8.285733,2.2266076
273,1436540917658,-10.602123,9.048286,2.949058
274,1436540917678,-11.59871,9.646238,3.3273418
275,1436540917698,-10.709863,10.681132,3.4099417
276,1436540917722,-10.84334,10.877457,2.8568811
277,1436540917757,-12.108076,9.812635,1.8357542
278,1436540917758,-9.223063,9.138069,1.9578584
279,1436540917780,-6.2530565,8.632893,2.3199813
280,1436540917800,-5.7227407,8.1558485,3.0825348
281,1436540917818,-6.830059,7.1472907,3.2255883
282,1436540917838,-6.3913217,6.4631476,3.240552
283,1436540917926,-5.5605335,6.013636,3.0986955
284,1436540917927,-6.0387754,5.599439,2.9616275
285,1436540917928,-5.9489927,5.1918263,2.641403
286,1436540917929,-5.115212,5.1020436,2.391209
287,1436540917935,-4.4478283,4.7285485,1.9375077
288,1436540917958,-4.06715,4.1892543,1.673547
289,1436540917978,-3.9881415,3.6218286,1.3754689
290,1436540917999,-4.0785227,3.41473,1.0271125
291,1436540918016,-4.3287168,3.5763388,0.8026561
292,1436540918039,-4.4436383,3.8762126,0.7290344
293,1436540918088,-4.675876,4.1539397,0.7140707
294,1436540918089,-5.0547585,4.819528,1.0007763
295,1436540918100,-6.1112,5.593454,1.4957775
296,1436540918116,-7.521983,6.0285997,1.7543513
297,1436540918136,-8.593987,6.6403184,1.8884265
298,1436540918156,-9.72824,7.0587053,2.2589293
299,1436540918205,-10.799645,7.3537903,2.5725696
300,1436540918206,-11.088146,7.973889,2.5605986
301,1436540918216,-10.873865,8.485649,2.5893292
302,1436540918255,-11.048044,8.940548,2.4887726
303,1436540918256,-11.653777,8.872911,2.2571337
304,1436540918319,-9.876082,7.9451585,1.0839748
305,1436540918320,-7.447763,8.582016,0.05805939
306,1436540918321,-7.61835,8.619126,-0.6428431
307,1436540918336,-9.714474,7.105392,-0.2908955
308,1436540918356,-9.202713,5.617396,-0.17477672
309,1436540918377,-7.44896,5.2121773,0.16639702
310,1436540918396,-6.892308,4.485537,0.11492168
311,1436540918416,-6.3272767,3.809175,0.3465607
312,1436540918436,-5.5270147,3.5003228,0.37708676
313,1436540918458,-4.84766,3.4452562,0.42317516
314,1436540918478,-4.4538136,3.3291376,0.4441244
315,1436540918497,-4.420295,3.0388405,0.5141548
316,1436540918518,-4.577115,2.9227216,0.5650316
317,1436540918537,-4.617218,3.2782607,0.47764325
318,1436540918557,-4.729147,3.657143,0.31543607
319,1436540918578,-4.8380833,4.1479545,0.40462008
320,1436540918597,-5.5258174,4.9200845,0.8242039
321,1436540918616,-6.7606273,5.4192758,1.0253168
322,1436540918636,-7.849989,6.3739634,1.4329298
323,1436540918657,-9.252393,7.1353197,1.6992847
324,1436540918679,-11.005547,7.463325,2.1841104
325,1436540918697,-12.221203,7.8811135,2.48159
326,1436540918716,-12.254123,8.600571,2.7748797
327,1436540918738,-11.758523,9.512762,2.8993783
328,1436540918797,-12.093113,9.966463,2.9287071
329,1436540918798,-11.574768,9.935937,3.0597897
330,1436540918799,-9.263166,8.628104,3.0178912
331,1436540918815,-6.6828156,7.599795,3.7235823
332,1436540918839,-5.230732,6.955156,4.2024226
333,1436540918856,-5.7041855,6.1938,4.4238863
334,1436540918879,-5.708974,5.749077,4.300585
335,1436540918896,-4.7363296,5.490503,3.7553053
336,1436540918917,-3.9067385,5.149928,3.1705215
337,1436540918938,-4.032434,4.9559975,2.5396495
338,1436540918957,-4.1814733,5.0374002,1.8543092
339,1436540918980,-4.3436804,4.939238,1.4203602
340,1436540918997,-4.212598,4.5447936,1.1839328
341,1436540919017,-4.19105,4.3263226,1.3383588
342,1436540919039,-4.548983,4.155137,1.3976152
343,1436540919057,-4.5543704,4.4119153,1.086369
344,1436540919080,-4.945224,4.717176,0.7302315
345,1436540919100,-5.659893,4.7070007,0.7398083
346,1436540919118,-6.169858,4.5579615,1.0043676
347,1436540919138,-6.6325374,4.437653,1.3892355
348,1436540919158,-6.937798,4.4621935,1.8339585
349,1436540919180,-6.9407907,4.631583,2.171541
350,1436540919200,-6.9707184,5.047576,2.248754
351,1436540919217,-7.438186,5.2241483,2.2936451
352,1436540919238,-7.744644,5.2265425,2.5845408
353,1436540919258,-7.683592,5.483919,3.0466216
354,1436540919278,-7.911041,5.7239375,3.490746
355,1436540919300,-7.9409685,6.326678,3.843891
356,1436540919319,-8.208521,7.053318,3.9234982
357,1436540919349,-8.459911,7.3088994,3.5098996
358,1436540919357,-7.189788,7.482479,2.8927941
359,1436540919379,-8.136096,7.926005,3.0502129
360,1436540919401,-12.228385,7.3633676,2.5600002
361,1436540919422,-11.346721,5.5467668,0.8463503
362,1436540919498,-6.5098343,6.0160303,0.7422025
363,1436540919499,-6.187216,5.8837504,-0.35434186
364,1436540919500,-8.324639,5.8119245,-0.78410107
365,1436540919501,-7.0305734,6.3422403,-1.1821371
366,1436540919517,-7.1484876,6.1369376,-0.80445176
367,1436540919539,-8.304289,5.179257,-0.83138657
368,1436540919557,-7.2059484,5.130774,-0.57281274
369,1436540919577,-7.140108,5.075109,-0.48362875
370,1436540919610,-7.9433627,4.8057613,-0.6218939
371,1436540919618,-8.006809,4.779425,-0.6817489
372,1436540919637,-7.824251,4.581305,-0.63206923
373,1436540919657,-7.4627266,4.3275194,-0.5662287
374,1436540919678,-7.340024,4.23235,-0.5327099
375,1436540919700,-7.4375877,4.1659107,-0.7236475
376,1436540919720,-7.712322,4.2730513,-0.8415619
377,1436540919744,-8.132504,4.3358994,-0.9295488
378,1436540919760,-8.365341,4.7046065,-0.908001
379,1436540919778,-8.341399,4.7925935,-0.5662287
380,1436540919799,-8.3312235,4.8362875,0.1388637
381,1436540919817,-8.22109,5.245696,0.7104794
382,1436540919838,-8.177396,5.6580973,1.1204864
383,1436540919860,-7.480085,5.7790046,0.97264445
384,1436540919878,-6.7468605,6.1447186,1.0690111
385,1436540919900,-7.529764,6.2207346,0.9576807
386,1436540919917,-8.479065,6.2943563,0.46567222
387,1436540919940,-8.434174,6.2823853,0.16699557
388,1436540919962,-8.690353,6.355408,0.37469256
389,1436540919978,-11.10311,7.015011,1.4024036
390,1436540920000,-13.572729,6.1405287,0.7404069
391,1436540920019,-11.107899,6.3206925,1.2162545
392,1436540920039,-8.516774,6.5265937,1.6184803
393,1436540920062,-5.9543796,6.704962,2.4510639
394,1436540920079,-5.099051,7.1951747,3.7511156
395,1436540920099,-6.7043633,6.2303114,4.120421
396,1436540920119,-5.657499,6.029797,4.522647
397,1436540920148,-4.784812,5.8442464,4.4059296
398,1436540920227,-5.851429,5.3169236,4.0653543
399,1436540920228,-6.1848216,5.0822916,3.513491
400,1436540920229,-5.6269727,5.1122193,2.9819782
401,1436540920230,-6.194997,4.8464627,2.5779567
402,1436540920237,-6.7708025,4.6351743,2.3959973
403,1436540920260,-6.5990186,4.6339774,2.336741
404,1436540920279,-6.1967926,4.7405195,2.2990322
405,1436540920297,-6.1836243,4.8787847,2.393603
406,1436540920318,-6.2458735,4.8548427,2.4366987
407,1436540920339,-5.9489927,4.9081135,2.6013002
408,1436540920361,-6.1141925,5.3019595,2.8299465
409,1436540920381,-6.64391,5.673061,3.0843303
410,1436540920404,-6.766014,6.1076083,3.3381157
411,1436540920418,-6.8144965,6.3985043,3.4638114
412,1436540920440,-7.421427,6.915652,3.6900635
413,1436540920462,-8.618527,7.181408,3.4685998
414,1436540920480,-8.6334915,7.0724716,3.301604
415,1436540920500,-8.224682,7.097611,3.317765
416,1436540920521,-10.47164,7.716512,3.9025488
417,1436540920540,-13.2429285,6.415862,2.4552538
418,1436540920561,-8.525752,6.342839,1.0217255
