id,attr_time,attr_x,attr_y,attr_z
1,1437143842704,2.154183,9.929952,-0.25737667
2,1437143842724,2.2439656,9.907805,-0.2753332
3,1437143842754,2.1829133,9.944317,-0.29388827
4,1437143842764,2.0093338,9.973646,-0.26396075
5,1437143842784,2.088941,9.959281,-0.25498247
6,1437143842804,2.2122424,9.911995,-0.23702596
7,1437143842825,2.232593,9.929353,-0.25258827
8,1437143842843,2.12246,9.928755,-0.30406362
9,1437143842864,2.0745757,9.937134,-0.2741361
10,1437143842883,2.1242554,9.961076,-0.22385786
11,1437143842903,2.1859062,9.940725,-0.2777274
12,1437143842923,2.167351,9.926959,-0.25558102
13,1437143842943,2.2134395,9.91798,-0.2693477
14,1437143842963,2.132635,9.957485,-0.30166942
15,1437143842983,2.1296425,9.950901,-0.23702596
16,1437143843003,2.1529858,9.953295,-0.24959552
17,1437143843023,2.1978772,9.955689,-0.2645593
18,1437143843043,2.2242134,9.955689,-0.25079262
19,1437143843067,2.204461,9.931747,-0.2657564
20,1437143843088,2.1039047,9.922171,-0.2657564
21,1437143843104,2.2098482,9.910199,-0.24779987
22,1437143843124,2.2260091,9.91798,-0.24121583
23,1437143843148,2.0967221,9.968858,-0.24779987
24,1437143843164,2.1906946,9.941922,-0.26515785
25,1437143843185,2.2284033,9.949105,-0.22685061
26,1437143843204,2.2415714,9.917382,-0.23283611
27,1437143843223,2.1511903,9.911995,-0.23882163
28,1437143843247,2.2637177,9.942521,-0.27234045
29,1437143843267,2.212841,9.928156,-0.23523031
30,1437143843287,2.2266076,9.944317,-0.24061728
31,1437143843308,2.1398177,9.922171,-0.1945289
32,1437143843324,2.2002714,9.923966,-0.21188685
33,1437143843345,2.2379801,9.916783,-0.272939
34,1437143843364,2.2511482,9.918579,-0.25917232
35,1437143843385,2.1769278,9.943718,-0.2645593
36,1437143843407,2.066196,9.967062,-0.25498247
37,1437143843423,2.0667946,9.961076,-0.23822308
38,1437143843443,2.2230163,9.946113,-0.24480712
39,1437143843463,2.3199813,9.92636,-0.22924481
40,1437143843484,2.1799207,9.9233675,-0.2765303
41,1437143843503,2.1308396,9.959879,-0.26874915
42,1437143843524,2.1972785,9.941324,-0.25977087
43,1437143843544,2.2152352,9.956886,-0.27353755
44,1437143843564,2.2176294,9.931149,-0.31184477
45,1437143843588,2.2176294,9.93893,-0.28670564
46,1437143843606,2.1631613,9.944916,-0.29747957
47,1437143843625,2.1134815,9.972448,-0.27832595
48,1437143843646,2.236783,9.9473095,-0.260968
49,1437143843664,2.2547395,9.93893,-0.30825347
50,1437143843685,2.2577322,9.894038,-0.2825158
51,1437143843705,2.2337902,9.93893,-0.30346507
52,1437143843725,2.2056582,9.928755,-0.26396075
53,1437143843745,2.2547395,9.945514,-0.27712885
54,1437143843768,2.232593,9.970653,-0.29628247
55,1437143843788,2.1823149,9.935339,-0.3465607
56,1437143843806,2.1841104,9.923966,-0.29568392
57,1437143843825,2.2619221,9.904813,-0.31483752
58,1437143843845,2.1871033,9.974244,-0.34596214
59,1437143843869,2.134431,9.965266,-0.3321955
60,1437143843889,2.1829133,9.91798,-0.30406362
61,1437143843909,2.2427685,9.859921,-0.21188685
62,1437143843929,2.1877017,9.900024,-0.26276365
63,1437143843944,2.1960814,9.949704,-0.29149407
64,1437143843965,2.3026235,9.919776,-0.2813187
65,1437143843985,2.28347,9.927557,-0.31783026
66,1437143844005,2.2278047,9.905411,-0.29747957
67,1437143844026,2.2176294,9.904214,-0.24301147
68,1437143844058,2.147599,10.040684,-0.23822308
69,1437143844066,2.2505496,9.998186,-0.25677812
70,1437143844085,2.273893,9.920973,-0.29747957
71,1437143844106,2.1290438,9.902418,-0.29269117
72,1437143844124,2.088941,9.936536,-0.28491
73,1437143844145,2.2272062,10.010158,-0.23163901
74,1437143844165,2.211644,9.951499,-0.219668
75,1437143844187,2.0332758,9.929353,-0.23582886
76,1437143844205,2.1278467,9.986216,-0.25438392
77,1437143844229,2.0973208,9.992201,-0.23882163
78,1437143844247,2.0632033,10.013748,-0.260968
79,1437143844267,1.9895816,9.991004,-0.21667525
80,1437143844289,2.1631613,9.941922,-0.26635495
81,1437143844309,2.2517467,9.864111,-0.1921347
82,1437143844329,2.0566192,9.931149,-0.23104046
83,1437143844349,1.9237411,9.907805,-0.21308395
84,1437143844367,2.0338743,9.88925,-0.18734628
85,1437143844388,2.1254525,10.046669,-0.2681506
86,1437143844408,2.0284874,10.077195,-0.26755205
87,1437143844426,2.0057425,10.029311,-0.2160767
88,1437143844448,2.2098482,9.952697,-0.12389994
89,1437143844468,2.143409,9.949105,-0.08020575
90,1437143844486,1.9865888,9.929952,-0.21547815
91,1437143844507,2.0177135,9.977237,-0.24779987
92,1437143844558,2.0805612,9.998186,-0.0724246
93,1437143844559,1.8267759,10.137649,0.011971008
94,1437143844567,1.6891093,10.10413,-0.04189853
95,1437143844589,1.9351135,9.952697,-0.074818805
96,1437143844607,2.1571758,9.894637,-0.044292733
97,1437143844628,1.7884687,9.946113,-0.08619126
98,1437143844646,1.198298,9.964667,0.02932897
99,1437143844670,1.0486604,10.4883995,0.054468088
100,1437143844696,1.5436616,10.794857,0.09935937
101,1437143844753,1.3467385,10.834361,0.0035913025
102,1437143844754,0.57640404,11.561002,-0.020949265
103,1437143844755,0.090979666,12.122441,-0.044292733
104,1437143844766,0.023343466,12.303204,0.8690952
105,1437143844786,-0.23223756,11.254543,0.25318682
106,1437143844806,0.25258827,10.85531,-0.25258827
107,1437143844827,1.0313023,10.50037,-1.0223241
108,1437143844845,1.5179238,10.094553,-1.0253168
109,1437143844866,1.1300632,9.413403,-1.0546459
110,1437143844886,-1.596334,8.781333,-0.7673417
111,1437143844906,-2.9580362,8.240842,-0.6895301
112,1437143844928,-1.8866309,8.865729,-0.4985925
113,1437143844947,-1.7489643,9.059659,-0.073621705
114,1437143844968,-1.2204443,9.41041,-0.11731588
115,1437143844989,-0.6943185,9.794081,-0.079008654
116,1437143845009,-0.010773907,9.908403,-0.14784196
117,1437143845028,0.34715924,9.989208,-0.10654198
118,1437143845048,0.59615624,10.011354,-0.22565351
119,1437143845069,1.0660183,10.067618,-0.110731825
120,1437143845089,1.7202339,10.195109,0.16160862
121,1437143845106,2.259528,10.415376,0.36152446
122,1437143845129,2.6007016,10.436325,0.08738836
123,1437143845149,3.271078,10.198701,-0.15562311
124,1437143845166,4.0563765,9.745,-0.40102878
125,1437143845188,4.610634,9.280524,-0.5494693
126,1437143845209,4.605247,8.671799,-0.6853402
127,1437143845229,4.5633483,8.194156,-0.7942764
128,1437143845248,5.1900306,7.529764,-4.192846
129,1437143845269,5.521628,10.614095,1.4107834
130,1437143845290,2.0248961,7.60578,-0.29568392
131,1437143845309,0.42796355,9.895236,-1.3964181
132,1437143845328,-2.9071593,19.436728,3.1902738
133,1437143845348,2.712032,9.304466,-1.0067618
134,1437143845369,6.728904,7.5309615,1.2216414
135,1437143845388,5.239112,10.559627,0.31423897
136,1437143845408,2.6252422,10.0903635,-0.4225766
137,1437143845433,1.6208745,9.667787,-1.204882
138,1437143845494,-0.035314474,10.340557,-2.40318
139,1437143845495,0.46208093,10.357915,-2.344522
140,1437143845496,2.2577322,10.474632,-1.9782091
141,1437143845515,2.4492683,9.886257,-2.1134815
142,1437143845527,2.3187842,9.767744,-1.9255368
143,1437143845551,2.5582044,9.742006,-1.7806876
144,1437143845566,2.7138276,9.890448,-1.2096704
145,1437143845586,0.98222125,10.309433,-1.3263878
146,1437143845621,0.94570965,9.576807,-1.4149733
147,1437143845632,3.6421793,8.7849245,-1.9261353
148,1437143845647,3.6523547,9.35235,-1.3964181
149,1437143845668,2.2026656,9.907805,-1.252766
150,1437143845687,1.5813702,10.4728365,-1.3281834
151,1437143845708,0.47405192,9.929353,-2.5372553
152,1437143845727,4.2155905,9.704897,-1.2731167
153,1437143845748,2.2110453,8.328829,-1.6537948
154,1437143845770,4.3143516,8.90643,0.044292733
155,1437143845790,3.6834793,7.709928,-0.3669114
156,1437143845810,6.3458314,8.25401,-1.3700819
157,1437143845828,5.207389,9.904813,-2.4510639
158,1437143845848,3.0418332,13.4739685,-2.8323407
159,1437143845870,2.698864,13.548787,-2.1763294
160,1437143845888,4.8440685,11.2928505,-1.0953473
161,1437143845910,6.495469,12.500726,-0.24779987
162,1437143845928,5.2923827,17.29691,-0.6841431
163,1437143845948,2.9317,19.17995,-0.29987377
164,1437143845970,0.93373865,15.235502,-0.789488
165,1437143845988,0.42317516,6.7223196,-0.16938977
166,1437143846010,0.9528923,0.12569559,1.9626468
167,1437143846029,-0.6955156,-5.117606,-3.5404258
168,1437143846048,-13.108254,-6.479308,5.7347116
169,1437143846070,-11.122264,-2.1601684,-9.202114
170,1437143846088,-8.553286,4.4645877,1.9387048
171,1437143846107,0.12569559,7.854179,3.0909145
172,1437143846133,5.4821234,11.894993,3.560178
173,1437143846158,6.0944405,12.149377,3.163339
174,1437143846216,5.6539073,12.4229145,0.8074445
175,1437143846217,10.688913,18.27135,-4.674679
176,1437143846218,17.407642,19.59714,-7.5094137
177,1437143846229,17.869123,15.185225,-2.106299
178,1437143846254,11.899781,10.327389,-2.0440497
179,1437143846268,9.003395,9.241618,-3.0819361
180,1437143846287,10.067019,8.774749,-1.3383588
181,1437143846308,10.056246,9.528923,0.4345476
182,1437143846328,6.0926447,9.959879,0.109534726
183,1437143846349,2.9311013,8.875904,-1.3976152
184,1437143846368,8.127716,5.1744685,-12.471995
185,1437143846390,4.3514614,16.800114,13.855844
186,1437143846408,-16.758215,19.007566,4.2383356
187,1437143846429,-0.017357962,13.989919,3.1399956
188,1437143846450,-2.1930888,19.608511,7.0347633
189,1437143846471,1.690905,1.8632874,-8.613141
190,1437143846488,17.921198,0.4381389,1.5059528
191,1437143846508,8.47727,14.624981,0.4914099
192,1437143846528,-1.7345991,10.454881,-2.9724014
193,1437143846548,7.951742,9.202114,-1.271321
194,1437143846571,2.9771898,10.821193,-3.8163576
195,1437143846588,4.4125137,9.285313,-1.7651252
196,1437143846608,5.5192337,9.072228,-1.4999673
197,1437143846630,4.6166196,9.147048,-2.3774424
198,1437143846649,5.4863133,9.814431,-0.7954735
199,1437143846669,3.6116533,11.762115,-0.21906945
200,1437143846693,2.980781,16.043545,-1.0779893
201,1437143846709,0.8583213,19.608511,-1.7776948
202,1437143846728,-0.79966336,19.608511,-0.29388827
203,1437143846751,-1.5777789,19.608511,1.30484
204,1437143846769,-5.324106,19.608511,2.5480292
205,1437143846789,-3.3063924,5.023035,3.8031895
206,1437143846809,-4.2305546,-5.209783,3.709217
207,1437143846829,-14.383765,-7.0263834,-1.1420342
208,1437143846849,-15.2331085,1.423353,-3.0137014
209,1437143846876,-5.1846437,0.85891986,-0.94930094
210,1437143846940,0.9331401,-0.47465047,-1.1204864
211,1437143846941,3.0412347,1.0887632,-3.5344403
212,1437143846963,6.2740054,2.992752,-5.9609637
213,1437143846971,10.954071,7.117962,-7.2460513
214,1437143846972,18.381483,13.58889,-2.9203274
215,1437143846989,19.607914,15.75684,-1.0899603
216,1437143847034,13.029245,14.903307,-5.187038
217,1437143847035,10.556035,16.001648,-6.1728506
218,1437143847058,14.48073,17.249025,-2.4636335
219,1437143847068,15.650896,13.978547,-1.3341689
220,1437143847088,13.778032,12.61445,0.019153614
221,1437143847108,9.972448,11.076775,1.4221559
222,1437143847128,3.235165,5.639542,3.9414546
223,1437143847148,10.21965,9.25359,-3.217807
224,1437143847168,-9.7240505,9.197925,-13.754689
225,1437143847188,-5.7825956,18.649633,-5.892729
226,1437143847208,3.177704,12.654553,1.4838065
227,1437143847228,5.403713,17.064074,4.657321
228,1437143847248,-7.667431,19.608511,8.839393
229,1437143847268,-5.835268,13.529036,-3.5757403
230,1437143847288,15.892113,3.259107,2.078167
231,1437143847308,8.370728,11.398195,-2.7377696
232,1437143847328,1.0271125,13.794791,-3.9270895
233,1437143847348,5.0332108,10.114903,-2.2972364
234,1437143847368,6.8360443,10.69849,-1.0947487
235,1437143847388,5.067328,10.827179,0.46627077
236,1437143847407,4.4448357,19.126678,1.9339164
237,1437143847429,-3.7128084,19.608511,1.1528081
238,1437143847450,-3.4129345,19.608511,1.210269
239,1437143847471,-3.2812533,10.177752,2.0697873
240,1437143847492,-2.9239187,-0.3800795,2.5671828
241,1437143847509,-16.488867,-15.445594,2.60549
242,1437143847530,-19.60911,-1.6298528,-5.9663506
243,1437143847549,-10.593145,3.8247373,-0.39264908
244,1437143847569,1.3880384,2.1164744,1.5795746
245,1437143847595,3.74513,3.1028855,-0.42556936
246,1437143847610,6.931214,4.8464627,-2.8939912
247,1437143847627,15.73589,9.454702,-9.767146
248,1437143847648,19.14703,14.622587,-9.953295
249,1437143847668,18.472464,19.608511,-9.801263
250,1437143847692,19.607914,18.119917,-10.291476
251,1437143847708,19.607914,9.942521,-8.34499
252,1437143847731,19.607914,4.8901567,-4.9464207
253,1437143847752,18.744804,4.481347,1.2533646
254,1437143847770,18.629284,19.568409,4.9302597
255,1437143847790,-19.60911,19.608511,-17.059885
256,1437143847807,-15.263635,13.185468,-17.274763
257,1437143847833,1.4047978,18.756176,-6.221333
258,1437143847852,17.3424,-9.366715,2.4821887
259,1437143847872,9.436148,6.882133,-1.7298107
260,1437143847892,6.893505,8.429984,-2.6779146
261,1437143847912,3.1453824,10.876859,-4.7961845
262,1437143847929,5.789778,12.555194,-3.244742
263,1437143847952,4.7985787,12.488754,-2.2577322
264,1437143847973,2.6551697,15.594633,0.7404069
265,1437143847988,3.2860417,16.68938,1.5717934
266,1437143848008,2.89459,15.874156,1.6346412
267,1437143848031,3.691859,17.48665,1.9183542
268,1437143848101,0.03232172,19.608511,2.1637597
269,1437143848102,-3.9618053,19.058445,2.1883004
270,1437143848106,-8.303091,8.6813755,4.5501804
271,1437143848110,-12.627619,-6.3206925,1.6190789
272,1437143848129,-15.363592,-18.347965,-4.156933
273,1437143848149,-7.294534,0.62488663,-7.8637557
274,1437143848169,-7.2221093,6.609194,-3.6768951
275,1437143848191,4.280833,6.214749,-2.055422
276,1437143848356,12.730569,6.501455,-3.57993
277,1437143848357,14.010868,11.660959,-3.164536
278,1437143848358,13.145365,11.83813,-6.491878
279,1437143848359,12.684481,17.551294,-8.603564
280,1437143848360,15.491083,19.507357,-3.6583402
281,1437143848361,17.66023,13.035232,-2.6599581
282,1437143848362,15.556326,11.451467,-3.1226375
283,1437143848363,12.254123,8.318654,-1.2318168
284,1437143848393,12.421119,7.234679,0.7835025
285,1437143848394,9.416994,7.0245876,1.541866
286,1437143848409,6.326678,5.170877,1.2395979
287,1437143848433,14.557344,12.102091,-3.4739866
288,1437143848448,-7.277775,14.535198,-3.764882
289,1437143848468,-9.211093,8.374319,-6.6726403
290,1437143848491,-0.6937199,9.305065,-3.911527
291,1437143848508,13.106459,19.608511,9.87668
292,1437143848530,-5.207389,1.5113398,-4.961983
293,1437143848551,17.111958,3.1675289,2.4756045
294,1437143848568,16.598402,7.0982094,-1.4873978
295,1437143848593,1.917157,8.32045,-8.006809
296,1437143848610,8.647857,10.150218,-2.5773582
297,1437143848631,0.2896984,11.839926,-4.1760864
298,1437143848652,7.402273,9.831191,-1.721431
299,1437143848672,6.2243257,11.725004,0.39683893
300,1437143848691,5.221754,15.86398,1.0576386
301,1437143848712,0.866701,19.608511,0.90620536
302,1437143848731,-0.17118542,17.86673,1.7322049
303,1437143848753,3.6481647,19.228432,2.9867666
304,1437143848771,-0.84096336,19.608511,5.1319714
305,1437143848793,-2.8963854,14.003087,8.441357
306,1437143848813,-2.2242134,5.649119,0.8110358
307,1437143848832,-9.033323,-3.103484,-2.541445
308,1437143848851,-10.404003,-11.654375,-1.3275849
309,1437143848873,-11.610083,-3.0897174,-2.043451
310,1437143848891,-10.854114,-2.0841527,-1.7896658
311,1437143848913,-5.8215013,-1.9099745,-3.2842462
312,1437143848934,-1.6454151,0.41958386,-7.7440453
313,1437143848953,3.3135753,6.803723,-8.811859
314,1437143848972,11.532869,13.182474,-7.4226236
315,1437143848999,19.607914,16.583439,-9.621698
316,1437143849094,18.02355,19.608511,-7.9792757
317,1437143849095,19.607914,19.044678,-7.294534
318,1437143849096,19.603125,13.216592,-6.0172276
319,1437143849097,13.367427,7.578247,-5.039196
320,1437143849098,17.188572,4.223372,4.059369
321,1437143849111,15.866973,4.6501384,-5.896919
322,1437143849143,15.268423,19.523518,17.168222
323,1437143849150,-18.43715,19.608511,0.79248077
324,1437143849169,-12.937668,12.174516,-17.967886
325,1437143849202,5.3259015,15.549143,5.783194
326,1437143849210,13.860632,19.608511,9.612122
327,1437143849230,0.33758244,-0.7368156,-0.7733272
328,1437143849249,19.335573,9.098565,1.650802
329,1437143849270,1.359308,14.105439,-5.6485205
330,1437143849292,3.3883939,19.31582,-2.203264
331,1437143849313,1.1402385,19.608511,-2.2415714
332,1437143849334,-4.8386817,19.608511,-1.1683705
333,1437143849353,-6.7983356,19.608511,-0.5009867
334,1437143849373,-11.767501,8.309077,4.8039656
335,1437143849394,-12.88679,-6.5738792,0.08080431
336,1437143849413,-19.60911,-16.542736,-3.1747115
337,1437143849433,-12.999917,-0.83976626,-8.4108305
338,1437143849454,-7.8116817,1.8656816,-3.7313633
339,1437143849471,1.4036007,0.31483752,-1.1881226
340,1437143849491,5.499481,1.0899603,-2.2972364
341,1437143849514,13.806164,6.029797,-4.6579194
342,1437143849531,19.607914,14.100053,-3.7660792
343,1437143849550,19.607914,19.608511,-1.5053543
344,1437143849570,19.607914,19.185337,-6.879739
345,1437143849595,17.418415,13.1717005,-2.4947581
346,1437143849616,19.607914,13.39496,1.7411832
347,1437143849638,16.400282,6.7342906,2.8054059
348,1437143849660,12.002133,5.769428,-7.5734587
349,1437143849671,15.986085,19.608511,16.821661
350,1437143849692,-16.233885,19.532495,0.7739257
351,1437143849710,-10.115502,12.571953,-17.200544
352,1437143849733,-3.9246953,19.608511,11.22282
353,1437143849752,5.09127,17.736246,3.0544028
354,1437143849818,-1.033098,-7.414244,-1.3634979
355,1437143849819,17.907433,11.601105,1.6711528
356,1437143849820,5.084686,8.689157,-3.518878
357,1437143849830,3.5206735,18.648438,-1.5292963
358,1437143849852,-2.0548236,19.608511,-3.751714
359,1437143849870,-5.3324857,19.608511,-2.6420016
360,1437143849892,-3.9636009,19.608511,-0.28072014
361,1437143849928,-8.802282,12.722788,7.928399
362,1437143849930,-17.384298,-19.16738,7.5507135
363,1437143849954,-16.502035,-6.621763,-10.369886
364,1437143849973,-15.844229,2.6862943,-0.38307226
365,1437143849994,-2.428319,-0.51235914,-1.3706805
366,1437143850011,2.35769,-2.2810757,0.56563014
367,1437143850033,8.474277,0.18016368,-3.3889925
368,1437143850054,17.338808,4.225766,-5.743091
369,1437143850074,19.607914,10.492589,-5.0026846
370,1437143850094,19.607914,16.936583,-0.28491
371,1437143850113,19.582176,16.370953,-4.532822
372,1437143850133,15.741278,11.323976,-4.027047
373,1437143850154,19.594147,9.585187,-0.25558102
374,1437143850174,19.607914,9.260772,-19.292477
375,1437143850195,8.112154,19.608511,0.682946
376,1437143850212,-19.60911,-2.9412768,3.0137014
377,1437143850234,-8.3821,19.608511,5.7748146
378,1437143850252,18.19713,19.608511,9.414599
379,1437143850272,1.7537527,-0.84575176,-7.6440873
380,1437143850293,4.0575733,8.174403,-3.3836055
381,1437143850315,13.7445135,15.80233,-1.5837644
382,1437143850335,-1.5436616,16.985664,-4.2676644
383,1437143850357,3.0298622,19.608511,-1.8974048
384,1437143850374,-5.5467668,19.608511,-0.18315643
385,1437143850392,-3.6170402,18.03552,1.2437878
386,1437143850411,-3.309984,8.15106,1.7286136
387,1437143850431,-7.5680714,-2.5893292,1.1959038
388,1437143850454,-14.723144,-12.901155,2.9370868
389,1437143850471,-17.992426,-9.529521,-6.9102645
390,1437143850539,-16.101006,1.3814543,-1.7100586
391,1437143850540,-2.0308816,-1.4628572,-0.2908955
392,1437143850541,7.9487495,0.20709845,0.8762778
393,1437143850557,6.4828997,6.157288,-2.0901382
394,1437143850575,9.510367,10.796653,-5.9849057
395,1437143850596,19.591753,17.043125,-8.517971
396,1437143850615,19.607914,19.608511,-3.0550013
397,1437143850631,19.413385,12.893973,-5.503671
398,1437143850663,17.908628,9.149442,-1.7208325
399,1437143850671,19.53908,7.0964136,3.5613751
400,1437143850692,19.607914,11.331757,-19.227236
401,1437143850713,-7.9822683,19.608511,4.9745526
402,1437143850740,-19.60911,7.6123643,1.9997569
403,1437143850752,-2.7874494,7.768586,-9.585785
404,1437143850775,18.892048,19.608511,14.172477
405,1437143850794,-15.167867,6.899491,-10.435727
406,1437143850814,5.9489927,0.7170634,0.2717419
407,1437143850834,19.472042,15.036784,-0.6631939
408,1437143850855,-3.7259765,17.089811,-3.9079356
409,1437143850875,-0.038307227,19.608511,-2.8814218
410,1437143850895,-6.457162,19.608511,-0.8996213
411,1437143850915,-10.632051,19.608511,1.8686744
412,1437143850934,-9.650429,-1.8968062,1.8375498
413,1437143850955,-12.913127,-19.367296,6.318897
