id,attr_time,attr_x,attr_y,attr_z
1,1437143842709,-0.87807345,9.614515,0.9576807
2,1437143842794,-0.93014735,9.648633,0.99060094
3,1437143842795,-0.95827925,9.633071,1.0175357
4,1437143842796,-0.9504981,9.646238,1.002572
5,1437143842797,-0.9504981,9.637859,0.9816227
6,1437143842809,-0.93493575,9.619304,0.9504981
7,1437143842836,-0.9475053,9.630077,0.9696517
8,1437143842874,-0.9391256,9.6049385,1.0013748
9,1437143842875,-0.9672575,9.601946,1.0061632
10,1437143842889,-0.90500826,9.551667,0.85413146
11,1437143842911,-0.908001,9.460688,1.1216835
12,1437143842937,-0.9876082,9.526528,1.0241197
13,1437143842950,-0.9032126,9.688736,0.9415198
14,1437143842977,-0.87208796,9.573814,0.7697359
15,1437143842990,-0.93972415,9.551667,0.9840169
16,1437143843012,-0.99060094,9.664794,1.146224
17,1437143843031,-0.9163807,9.69113,0.9552865
18,1437143843050,-0.9576807,9.593566,0.9768343
19,1437143843069,-0.9463082,9.497798,1.0097545
20,1437143843090,-0.8571242,9.466075,0.95229375
21,1437143843111,-0.89782566,9.496002,1.0013748
22,1437143843132,-0.89662856,9.514558,0.98222125
23,1437143843154,-0.908001,9.559449,0.9720459
24,1437143843169,-0.85054016,9.733627,0.94810385
25,1437143843190,-0.81343,9.569026,0.9355343
26,1437143843214,-0.8295909,9.56304,1.0384849
27,1437143843233,-0.9259575,9.692925,1.0755951
28,1437143843253,-0.9600749,9.64983,1.0672154
29,1437143843272,-0.9780314,9.570822,1.0540473
30,1437143843291,-0.90979666,9.553463,0.97862995
31,1437143843312,-0.86370826,9.595362,0.9295488
32,1437143843330,-0.8870517,9.582792,0.95109665
33,1437143843355,-0.92057055,9.624092,0.96306765
34,1437143843373,-0.919972,9.603742,0.9504981
35,1437143843393,-0.8810662,9.624092,0.9516952
36,1437143843414,-0.8900445,9.639056,0.97384155
37,1437143843484,-0.89064306,9.629479,0.96905315
38,1437143843485,-0.9008184,9.5971575,0.9792285
39,1437143843486,-0.8834604,9.598354,0.92895025
40,1437143843505,-0.8762778,9.653421,0.90141696
41,1437143843510,-0.8750807,9.64145,0.92057055
42,1437143843532,-0.8750807,9.585187,0.97264445
43,1437143843554,-0.8607155,9.5809965,0.9576807
44,1437143843570,-0.87089086,9.557653,0.99179804
45,1437143843591,-0.8074445,9.600749,0.86370826
46,1437143843614,-0.8774749,9.5385,0.96067345
47,1437143843631,-0.99778354,9.688736,0.985214
48,1437143843651,-0.8882488,9.70789,0.6955156
49,1437143843674,-0.86729956,9.648633,0.62249243
50,1437143843690,-0.8996213,9.589975,0.8690952
51,1437143843710,-0.9792285,9.75697,1.0307038
52,1437143843732,-0.9271546,9.762956,0.91937345
53,1437143843752,-0.866701,9.627085,0.97384155
54,1437143843770,-0.80205756,9.493608,0.9355343
55,1437143843793,-0.7278373,9.543288,0.90381116
56,1437143843810,-0.7769185,9.613318,0.97025025
57,1437143843833,-0.8002619,9.6845455,0.9540894
58,1437143843850,-0.7493851,9.674371,0.9935937
59,1437143843871,-0.670975,9.631873,0.95349085
60,1437143843894,-0.63206923,9.574412,0.9923966
61,1437143843914,-0.65182143,9.569624,1.0498575
62,1437143843936,-0.76315176,9.661202,1.0911574
63,1437143843957,-0.8343793,9.645041,1.0019734
64,1437143843978,-0.90381116,9.625289,1.043872
65,1437143843993,-0.82719666,9.607931,1.0103531
66,1437143844010,-0.74639237,9.610924,0.9576807
67,1437143844031,-0.7038953,9.60015,0.973243
68,1437143844100,-0.7433996,9.582792,0.94570965
69,1437143844101,-0.84455466,9.590573,0.9959879
70,1437143844102,-0.92535895,9.612122,0.9367314
71,1437143844235,-0.8858546,9.603742,0.89303726
72,1437143844236,-0.86370826,9.6049385,0.8870517
73,1437143844237,-0.8822633,9.61272,0.9427169
74,1437143844238,-0.85652566,9.665392,0.9672575
75,1437143844239,-0.8295909,9.685144,0.9959879
76,1437143844240,-0.7799112,9.66659,0.9792285
77,1437143844241,-0.7194576,9.598354,0.98222125
78,1437143844315,-0.7493851,9.598354,1.0450691
79,1437143844316,-0.7032967,9.619903,0.8888474
80,1437143844317,-0.7398083,9.564836,1.0588357
81,1437143844321,-0.89064306,9.69113,0.9828198
82,1437143844376,-0.86011696,9.7479925,0.8678981
83,1437143844377,-0.7140707,9.7007065,0.6997054
84,1437143844378,-0.7787141,9.561843,0.9911995
85,1437143844391,-0.8367735,9.680955,1.1420342
86,1437143844411,-0.7858967,9.723452,0.98102415
87,1437143844434,-0.78050977,9.700109,0.93852705
88,1437143844455,-0.7338228,9.659407,0.87927055
89,1437143844474,-0.65301853,9.624092,0.8936358
90,1437143844493,-0.6781576,9.651626,0.9624691
91,1437143844511,-0.7146692,9.7162695,0.9103952
92,1437143844533,-0.7134721,9.720459,0.8936358
93,1437143844554,-0.6799533,9.713276,0.79248077
94,1437143844574,-0.6985083,9.463681,0.8846575
95,1437143844594,-0.6781576,9.337985,1.0193313
96,1437143844617,-0.79966336,9.496601,1.0767922
97,1437143844635,-0.80564886,9.507375,1.0947487
98,1437143844655,-0.8050503,9.564238,1.1905168
99,1437143844673,-0.9175778,9.604341,1.1599907
100,1437143844693,-0.8798691,9.510966,1.1534066
101,1437143844722,-0.8912416,9.411008,1.2150574
102,1437143844732,-0.94211835,9.524135,1.2036849
103,1437143844751,-0.84216046,9.7479925,1.1528081
104,1437143844772,-0.7721301,9.805453,0.98940384
105,1437143844796,-0.5542577,9.801263,1.0474633
106,1437143844812,-0.6003461,9.6845455,0.9720459
107,1437143844834,-0.6356605,9.7479925,0.97144735
108,1437143844852,-0.5943606,9.761759,0.8702923
109,1437143844872,-0.5410896,9.755175,0.801459
110,1437143844891,-0.59136784,9.725846,0.7356185
111,1437143844911,-0.6368576,9.774927,0.7152678
112,1437143845003,-0.6398504,9.808446,0.62009823
113,1437143845004,-0.60214174,9.504981,0.57400984
114,1437143845005,-0.6596026,9.2907,0.95588505
115,1437143845006,-0.8882488,9.446322,1.043872
116,1437143845015,-0.86610246,9.554661,0.87208796
117,1437143845032,-0.66259533,9.527725,0.48123455
118,1437143845053,-0.53450555,9.411607,0.58418524
119,1437143845071,-0.700304,9.532514,1.0187328
120,1437143845092,-0.8487445,9.759365,1.0336965
121,1437143845125,-0.87089086,9.596559,1.0570401
122,1437143845133,-1.0761937,9.42238,1.1115081
123,1437143845153,-1.0462662,9.52593,0.96785605
124,1437143845173,-0.88046765,9.81084,0.8726865
125,1437143845192,-0.729633,9.81084,0.8523358
126,1437143845213,-0.86131406,9.633669,1.0672154
127,1437143845234,-0.85891986,9.624691,0.830788
128,1437143845254,-0.7757214,9.516952,0.65421563
129,1437143845277,-0.54288524,9.47206,0.5231331
130,1437143845297,-0.56323594,9.442732,0.56443304
131,1437143845322,-0.65301853,9.388264,0.7278373
132,1437143845339,-0.7170634,9.382876,0.83018947
133,1437143845358,-0.78410107,9.7007065,0.7044938
134,1437143845377,-0.830788,10.157999,0.65301853
135,1437143845394,-0.6907272,10.397419,0.84096336
136,1437143845414,-0.39384618,10.378265,1.2569559
137,1437143845431,-0.20590134,10.302849,1.8201919
138,1437143845452,-0.23223756,9.991602,1.7848774
139,1437143845472,-0.107140526,9.291897,1.4856021
140,1437143845493,0.037110128,8.775947,1.4107834
141,1437143845517,0.092775315,8.940548,1.4526819
142,1437143845562,-0.06344634,9.601347,1.602918
143,1437143845563,-0.13946225,10.164583,1.7393875
144,1437143845573,-0.12389994,10.235212,1.8148049
145,1437143845593,-0.16938977,9.722255,1.8896236
146,1437143845616,-0.24241292,9.276933,1.9835961
147,1437143845635,-0.17417817,9.239224,2.0721815
148,1437143845724,0.11252748,9.298481,2.1559787
149,1437143845725,0.022146367,9.294291,2.2170308
150,1437143845726,-0.08738836,9.287108,2.0697873
151,1437143845727,0.020350715,9.200318,1.8142064
152,1437143845735,0.21667525,8.995016,1.6208745
153,1437143845752,0.21667525,9.032125,1.8788497
154,1437143845774,0.17118542,9.34038,1.9782091
155,1437143845792,0.28790274,9.424176,1.8195933
156,1437143845818,0.31004912,9.255983,1.8154035
157,1437143845834,0.1376666,9.215282,1.8602947
158,1437143845855,-0.033518825,9.467871,1.9746178
159,1437143845880,0.05327099,9.456498,1.9285295
160,1437143845893,0.44771573,9.012374,1.6460136
161,1437143845914,0.664391,8.729858,1.8543092
162,1437143845934,0.30286652,8.907627,1.7968484
163,1437143845953,0.17477672,9.239823,1.4628572
164,1437143845974,0.15143326,9.5971575,1.0468647
165,1437143845993,0.22804771,10.811616,0.50757074
166,1437143846015,0.40462008,11.636418,0.11851298
167,1437143846035,0.18315643,11.113286,0.27353755
168,1437143846055,-0.65301853,9.973646,0.47345337
169,1437143846075,-2.2523453,8.222886,0.3878607
170,1437143846098,-2.5719712,7.252037,-0.050876785
171,1437143846116,-0.7613561,7.9930425,-1.401805
172,1437143846136,1.0785879,9.657611,-1.6250644
173,1437143846153,1.1587936,11.2371855,-0.9391256
174,1437143846173,-0.5363012,11.990162,-0.3537433
175,1437143846193,-1.7375919,11.804013,0.2100912
176,1437143846215,-1.8154035,10.733805,0.25677812
177,1437143846234,-1.560421,9.444528,-0.023942016
178,1437143846253,-1.2719196,8.547898,-0.28431144
179,1437143846274,-0.9804256,7.606379,-0.32920274
180,1437143846295,-0.4177882,7.079056,-0.6368576
181,1437143846322,-0.27114335,6.935404,-1.2761095
182,1437143846345,-0.9139865,7.349002,-1.7070658
183,1437143846353,-0.98222125,8.057686,-1.7351977
184,1437143846373,-0.35194764,8.487445,-1.4131776
185,1437143846468,-0.29029694,8.236053,-0.92775315
186,1437143846469,-0.7368156,7.6165543,-0.24361002
187,1437143846470,-0.90859956,7.463325,-0.14664486
188,1437143846485,-0.85772276,7.5800424,-0.6997054
189,1437143846486,-1.1474211,7.832032,-0.5518635
190,1437143846495,-2.1877017,8.426393,0.34835634
191,1437143846519,-2.6701334,9.024344,0.60214174
192,1437143846565,-1.951873,8.899846,0.39145198
193,1437143846566,-0.3854665,7.6452847,-0.22565351
194,1437143846581,-0.44472298,8.767567,-0.004189853
195,1437143846593,-0.74399817,11.077373,0.44232875
196,1437143846617,0.35553896,11.798626,0.29209262
197,1437143846638,-1.1420342,12.343307,0.37469256
198,1437143846656,1.0833763,11.954847,0.62249243
199,1437143846674,0.7457938,11.000159,1.5753847
200,1437143846694,-1.1737574,12.7257805,2.1212628
201,1437143846714,-2.7910407,14.899715,1.5239093
202,1437143846734,-2.8353333,14.904504,0.46148238
203,1437143846755,-2.5127146,12.77546,0.96426475
204,1437143846775,-2.4073699,8.716091,2.0470424
205,1437143846796,-1.9548657,6.7785835,1.22224
206,1437143846816,-0.4237737,6.1022215,0.20530279
207,1437143846879,1.1043255,6.5481415,-0.5105635
208,1437143846880,0.9840169,7.6123643,-0.19572599
209,1437143846881,-0.63206923,8.74961,1.0827777
210,1437143846905,-2.280477,9.290101,1.8776526
211,1437143846928,-2.8167782,8.152257,1.5969325
212,1437143846934,-0.31663316,6.2219315,0.7110779
213,1437143846959,2.2990322,4.996699,0.6847417
214,1437143846976,2.3798366,5.827487,1.3371617
215,1437143846994,-0.02813187,7.519589,2.191293
216,1437143847014,-1.0821792,7.4016747,0.9900024
217,1437143847033,-0.45789108,5.1547165,0.02873042
218,1437143847058,-0.7236475,4.0372224,0.20171149
219,1437143847075,-0.57999533,4.6764746,-0.545878
220,1437143847099,0.08738836,7.450157,-1.6801311
221,1437143847115,0.35254622,12.049418,-3.1998506
222,1437143847134,0.08319851,19.545664,-1.7172412
223,1437143847216,-2.1577742,19.608511,-2.806603
224,1437143847217,-3.4284968,16.561293,-2.1410148
225,1437143847218,-5.5222263,13.157335,0.53450555
226,1437143847219,-3.8127663,12.299014,0.31902736
227,1437143847236,0.17238252,12.971785,-1.2671312
228,1437143847259,-0.20410569,11.86327,-1.4820108
229,1437143847278,-1.7465701,10.852917,-1.204882
230,1437143847296,-1.6639702,10.198701,-1.1767502
231,1437143847319,-0.7356185,9.782109,-1.2270284
232,1437143847341,-1.0199299,9.448717,-0.688333
233,1437143847355,-1.4766239,9.351153,-0.37229836
234,1437143847374,-1.6454151,9.123704,-0.110133275
235,1437143847399,-0.7445967,7.3843164,-0.4818331
236,1437143847417,0.7739257,4.010288,-1.0007763
237,1437143847436,1.3269863,-0.0688333,-0.7404069
238,1437143847455,1.5316905,-1.9865888,-0.5967548
239,1437143847474,1.246182,1.3102269,-0.10474633
240,1437143847494,1.1408371,6.918046,0.40102878
241,1437143847516,-0.79128367,13.215395,1.3335704
242,1437143847537,-2.908955,19.498978,1.389834
243,1437143847557,0.985214,19.608511,-6.4990606
244,1437143847577,2.9520507,16.32666,-0.15442601
245,1437143847597,-0.3878607,8.396465,3.705027
246,1437143847616,-1.2491747,8.696339,2.6515784
247,1437143847635,-1.5628152,11.655573,0.7302315
248,1437143847656,-2.6928782,14.024036,-0.41718966
249,1437143847676,-1.1097125,13.623008,0.17657238
250,1437143847695,0.17896658,10.736797,1.0247183
251,1437143847715,1.4730326,7.4447703,0.29269117
252,1437143847734,2.6270378,6.1022215,0.58298814
253,1437143847756,0.7062895,5.715558,1.4437037
254,1437143847776,-1.7381904,4.237737,1.0672154
255,1437143847797,-1.0151415,1.8022354,-0.6278794
256,1437143847817,0.89064306,-0.62488663,-0.6919243
257,1437143847837,1.1821371,-0.89543146,-0.83258367
258,1437143847856,1.2114661,3.13401,-1.816002
259,1437143847876,0.81881696,8.043321,-1.009156
260,1437143847907,1.7723078,12.841301,-0.16220717
261,1437143847960,-0.4357447,15.242086,-2.3942018
262,1437143847961,-2.3331497,15.536573,-1.8794483
263,1437143847962,-1.7645266,14.444219,-1.8662802
264,1437143847988,-0.82719666,13.998299,-1.38325
265,1437143847994,-1.4628572,14.38616,0.6727707
266,1437143848015,-1.4856021,13.296798,1.3868413
267,1437143848035,-0.3705027,11.465234,1.0217255
268,1437143848054,-0.061052144,9.210494,-0.18255788
269,1437143848075,-0.272939,6.3242836,-0.57281274
270,1437143848098,1.1965023,3.5332432,-0.30406362
271,1437143848119,2.319383,1.1001357,1.0067618
272,1437143848136,1.4628572,2.0967221,-0.56203884
273,1437143848157,0.15981296,5.886145,-0.9840169
274,1437143848175,-1.1719618,11.507132,-1.1162965
275,1437143848195,-2.2284033,19.14284,-3.4380736
276,1437143848217,2.0213048,19.608511,-5.6185927
277,1437143848238,3.3542767,17.328634,1.477821
278,1437143848258,-0.64942724,9.854534,4.4568067
279,1437143848275,-4.0659533,8.26658,0.39863458
280,1437143848295,-6.3751607,10.617686,-2.3277626
281,1437143848322,-4.2179847,13.992912,-2.4588451
282,1437143848341,-0.8098387,14.465168,-0.3417723
283,1437143848357,0.22804771,6.7001734,0.825401
284,1437143848376,1.6298528,-0.54168814,0.82899237
285,1437143848397,2.3056161,-5.6150017,-0.28790274
286,1437143848416,2.3295584,-6.5846534,-0.7134721
287,1437143848436,0.98581254,-0.90381116,-0.61650693
288,1437143848456,-0.47524905,5.7748146,-0.54288524
289,1437143848476,0.272939,9.822811,-2.1021092
290,1437143848495,2.8736405,16.272192,-4.1653123
291,1437143848515,2.8939912,19.608511,-6.775591
292,1437143848534,-7.6985555,19.608511,-5.3618145
293,1437143848555,-5.609016,18.967464,2.3636756
294,1437143848576,0.3561375,14.485518,0.7565677
295,1437143848597,-0.38067806,14.762648,-0.20590134
296,1437143848617,-3.0005333,14.887745,-0.94092125
297,1437143848709,-2.284667,10.840945,-0.83856916
298,1437143848710,0.7302315,6.3721676,-0.8619126
299,1437143848711,0.6745663,4.4478283,-0.20171149
300,1437143848712,-0.4225766,4.677073,0.10115502
301,1437143848722,-0.92057055,5.2594624,-0.39803603
302,1437143848735,-0.57760113,4.5872903,0.14664486
303,1437143848766,0.76195467,3.8666358,-0.06344634
304,1437143848776,1.6837224,4.5166616,-0.62967503
305,1437143848809,1.299453,8.267777,-2.0697873
306,1437143848817,-1.9800048,19.34515,-1.9782091
307,1437143848835,-1.9829975,19.608511,-0.0053869537
308,1437143848862,0.1400608,15.632341,3.9163153
309,1437143848875,-1.0582372,10.359711,1.762731
310,1437143848895,-2.8886044,10.035296,-0.24839842
311,1437143848916,-1.6837224,10.906187,-1.5107412
312,1437143848935,-0.7930793,11.767501,-0.8834604
313,1437143848956,0.4985925,11.473015,-0.18614918
314,1437143848977,1.5065514,9.470863,0.7835025
315,1437143848997,0.94570965,7.4884644,1.7070658
316,1437143849016,0.21667525,5.032612,0.79726917
317,1437143849036,-0.08678981,1.1534066,-0.53809685
318,1437143849059,0.3561375,-0.2184709,-0.9163807
319,1437143849079,1.1994951,-0.3597288,-0.4333505
320,1437143849095,1.4257472,1.3497312,-0.30645782
321,1437143849117,0.62009823,4.449624,-0.5081693
322,1437143849135,-0.65780693,7.873931,-1.0109516
323,1437143849155,-1.5562311,12.568362,-1.0001777
324,1437143849177,-1.7633295,18.286314,-2.6048915
325,1437143849194,-1.4000094,19.608511,-3.040636
326,1437143849215,-1.9806033,18.025944,-1.6831238
327,1437143849235,-3.3614593,12.518084,-1.6621746
328,1437143849256,-4.9583917,11.494562,0.023942016
329,1437143849275,-3.031658,15.093047,0.51116204
330,1437143849296,-0.2765303,15.947179,-0.11671733
331,1437143849314,0.5434838,13.538612,-0.5117606
332,1437143849334,-1.0462662,11.326369,0.12808979
333,1437143849369,-2.3127987,10.5291,0.12030864
334,1437143849375,-2.1398177,9.460688,-0.22685061
335,1437143849396,-0.79367787,7.599196,-0.44771573
336,1437143849414,-0.29927522,5.183447,0.23343466
337,1437143849434,-0.46028528,2.831742,0.56982
338,1437143849455,0.41958386,1.6843209,0.16460137
339,1437143849474,1.5897499,1.4682442,-0.81642276
340,1437143849495,1.5490485,3.1465795,-1.4131776
341,1437143849515,-0.1316811,5.9783216,-1.5885528
342,1437143849538,-1.9608512,9.926959,-1.5185224
343,1437143849557,-2.4827871,14.996681,-1.7926586
344,1437143849576,-1.3443443,19.546862,-2.3415294
345,1437143849595,0.94211835,19.608511,-1.6280571
346,1437143849615,0.6398504,15.531785,2.3540988
347,1437143849637,-3.2303767,10.817602,2.9855695
348,1437143849658,-5.141548,9.749189,1.0827777
349,1437143849679,-4.140772,9.484032,-1.2755109
350,1437143849697,-1.0534488,8.7771435,-1.62686
351,1437143849716,1.6436194,5.7299232,0.7457938
352,1437143849736,0.9355343,2.0015526,0.7314286
353,1437143849756,1.8195933,-1.5077485,-0.8098387
354,1437143849778,2.6725276,-3.4715924,-1.5777789
355,1437143849798,1.5101427,-1.2348095,-0.8182184
356,1437143849820,-0.54767364,4.622605,0.3321955
357,1437143849840,-2.6701334,10.790668,0.90859956
358,1437143849860,-3.0879216,16.825253,0.41718966
359,1437143849878,-2.123657,19.608511,-3.103484
360,1437143849896,-0.3238158,19.608511,-4.899135
361,1437143849916,-1.2814964,17.81765,-0.15741876
362,1437143849936,-3.9600096,10.716447,2.373851
363,1437143849956,-1.0851719,10.924743,1.3395559
364,1437143850019,1.4826094,10.151415,0.18974048
365,1437143850020,2.570774,6.1758432,-1.6047137
366,1437143850021,2.0775685,0.83617496,-2.5049336
367,1437143850037,0.87448215,-3.1010897,-1.3521254
368,1437143850056,0.25797522,-3.0184898,-0.6159084
369,1437143850076,-0.7445967,2.6426,-0.74399817
370,1437143850098,-1.2144588,7.73387,-0.86610246
371,1437143850115,0.022744916,12.94066,-1.9488802
372,1437143850139,-1.6077064,19.540277,0.5614403
373,1437143850156,4.6561236,19.608511,-2.9281087
374,1437143850177,0.39504328,16.289549,5.1822495
375,1437143850199,-4.353257,11.612476,2.9819782
376,1437143850217,-4.8775873,11.565191,0.9487024
377,1437143850237,-2.6222494,8.3868885,-0.81043726
378,1437143850257,-0.45669398,5.243302,-0.66259533
379,1437143850279,0.0688333,3.080739,0.6135142
380,1437143850297,0.06284779,0.8475474,1.0217255
381,1437143850318,0.3752911,-1.2653356,0.33039984
382,1437143850347,1.8363527,-1.2324153,-1.1198878
383,1437143850357,3.0029275,1.9381063,-0.7529764
384,1437143850384,1.4490906,6.105214,0.48722005
385,1437143850396,-2.5552118,17.571047,-0.16160862
386,1437143850421,-0.8170213,19.608511,-5.9226565
387,1437143850443,3.2225955,19.608511,-4.92607
388,1437143850462,-2.3373394,11.795633,1.0714053
389,1437143850479,-4.4723687,9.44333,2.5905263
390,1437143850503,-1.2677298,11.323976,1.3569138
391,1437143850517,0.5662287,11.19409,0.20350714
392,1437143850538,0.66020113,7.313089,-0.012569559
393,1437143850561,1.602918,1.632247,-0.64703304
394,1437143850581,1.797447,-3.426701,-1.4221559
395,1437143850601,1.4053963,-4.1581297,-1.6220716
396,1437143850617,-1.0271125,4.425083,0.45549688
397,1437143850710,-2.7150247,10.872668,1.2204443
398,1437143850711,-3.7379475,16.682798,1.1426327
399,1437143850712,2.349909,19.608511,-4.209605
400,1437143850713,7.013814,19.608511,-2.4744074
401,1437143850722,0.7721301,15.771804,3.9677908
402,1437143850738,-3.655946,13.361441,4.6776714
403,1437143850760,-3.2704794,11.656171,1.6944963
404,1437143850777,-3.4614172,8.157643,-0.17357962
405,1437143850804,-2.4199393,3.2225955,-1.0708067
406,1437143850817,-0.4961983,-2.8149827,-0.47225627
407,1437143850841,3.8612487,-5.7484784,-2.273893
408,1437143850860,5.286996,0.93134445,-0.6266823
409,1437143850879,3.8815994,8.237849,0.53211135
