id,attr_time,attr_x,attr_y,attr_z
1,1436541500418,1.4694413,9.558251,-0.83856916
2,1436541500437,1.5023615,9.478046,-0.825401
3,1436541500454,1.4215573,9.48463,-0.6925228
4,1436541500476,1.4251486,9.531916,-0.7386112
5,1436541500494,1.4502877,9.487024,-0.86131406
6,1436541500516,1.5119383,9.465476,-0.80684596
7,1436541500536,1.471237,9.498397,-0.7763199
8,1436541500556,1.3844471,9.542689,-0.670975
9,1436541500577,1.3545196,9.500193,-0.7517793
10,1436541500593,1.4191631,9.511565,-0.770933
11,1436541500616,1.4706384,9.510367,-0.7918822
12,1436541500636,1.5047557,9.524733,-0.78290397
13,1436541500656,1.4389153,9.526528,-0.7230489
14,1436541500673,1.4317327,9.539098,-0.705691
15,1436541500695,1.4514848,9.44333,-0.85054016
16,1436541500717,1.501763,9.472659,-0.8086416
17,1436541500739,1.4634558,9.463082,-0.74519527
18,1436541500760,1.400608,9.544485,-0.6452374
19,1436541500791,1.4065934,9.581595,-0.7433996
20,1436541500795,1.441908,9.490017,-0.83378077
21,1436541500813,1.4496891,9.41041,-0.7685388
22,1436541500833,1.4610616,9.4972,-0.80325466
23,1436541500854,1.429937,9.5570545,-0.79367787
24,1436541500874,1.4347254,9.56723,-0.7954735
25,1436541500895,1.4401124,9.497798,-0.7356185
26,1436541500915,1.3892355,9.406818,-0.79008657
27,1436541500935,1.4173675,9.473258,-0.8230068
28,1436541500995,1.4568717,9.498397,-0.78769237
29,1436541500996,1.377863,9.51755,-0.6607997
30,1436541500997,1.3425486,9.583989,-0.7290344
31,1436541501014,1.3652935,9.592369,-0.8355764
32,1436541501034,1.4389153,9.552266,-0.84694886
33,1436541501054,1.4059949,9.437943,-0.75836337
34,1436541501074,1.401805,9.491813,-0.7703344
35,1436541501094,1.4437037,9.491214,-0.80205756
36,1436541501119,1.4437037,9.502586,-0.8098387
37,1436541501136,1.4514848,9.483433,-0.85173726
38,1436541501155,1.4041992,9.512762,-0.7787141
39,1436541501174,1.3964181,9.506178,-0.75716627
40,1436541501196,1.4149733,9.5253315,-0.7811083
41,1436541501215,1.401805,9.534908,-0.7739257
42,1436541501235,1.4053963,9.491214,-0.789488
43,1436541501257,1.4167689,9.4972,-0.7787141
44,1436541501277,1.3958195,9.523536,-0.7858967
45,1436541501297,1.4359225,9.546879,-0.80684596
46,1436541501315,1.4562732,9.501988,-0.8062474
47,1436541501335,1.472434,9.506178,-0.78649527
48,1436541501355,1.4490906,9.484032,-0.74758947
49,1436541501376,1.400608,9.464279,-0.74639237
50,1436541501396,1.3808558,9.521142,-0.8595184
51,1436541501415,1.4137762,9.494206,-0.79487497
52,1436541501436,1.4610616,9.524733,-0.7858967
53,1436541501453,1.471237,9.551667,-0.7906851
54,1436541501473,1.4496891,9.518148,-0.7254431
55,1436541501494,1.3892355,9.498995,-0.7715315
56,1436541501514,1.3611037,9.4696665,-0.81402856
57,1436541501536,1.4502877,9.44333,-0.8242039
58,1436541501559,1.5113398,9.481039,-0.7954735
59,1436541501575,1.46585,9.561244,-0.6973112
60,1436541501593,1.3850456,9.594764,-0.7517793
61,1436541501614,1.377863,9.537302,-0.8643068
62,1436541501634,1.4425066,9.46009,-0.8355764
63,1436541501654,1.5041572,9.483433,-0.78050977
64,1436541501677,1.4682442,9.519346,-0.7026982
65,1436541501712,1.4269443,9.48044,-0.7248446
66,1436541501716,1.4185646,9.531916,-0.78888947
67,1436541501740,1.3922282,9.493608,-0.82480246
68,1436541501757,1.4401124,9.449316,-0.80205756
69,1436541501777,1.4341269,9.505579,-0.7667431
70,1436541501794,1.3880384,9.527127,-0.7194576
71,1436541501824,1.4269443,9.549872,-0.7679402
72,1436541501834,1.4383167,9.573814,-0.7733272
73,1436541501855,1.4676456,9.531317,-0.7326257
74,1436541501875,1.4748282,9.507375,-0.7667431
75,1436541501895,1.4329298,9.487024,-0.7266402
76,1436541501916,1.395221,9.500193,-0.76554596
77,1436541501935,1.4089876,9.470863,-0.79128367
78,1436541501956,1.4395138,9.463681,-0.741604
79,1436541501978,1.4772224,9.561843,-0.78769237
80,1436541501996,1.4389153,9.510966,-0.70509243
81,1436541502021,1.3844471,9.495404,-0.7170634
82,1436541502035,1.3814543,9.499594,-0.7739257
83,1436541502055,1.483208,9.548675,-0.80086046
84,1436541502076,1.5167267,9.492412,-0.7009025
85,1436541502096,1.436521,9.466075,-0.62847793
86,1436541502115,1.3599066,9.479243,-0.7697359
87,1436541502135,1.3784616,9.481637,-0.7799112
88,1436541502156,1.4460979,9.508572,-0.748188
89,1436541502175,1.5029601,9.528324,-0.7326257
90,1436541502195,1.4706384,9.539697,-0.6691794
91,1436541502215,1.4209588,9.514558,-0.6488287
92,1436541502235,1.3640964,9.563639,-0.736217
93,1436541502256,1.3808558,9.534908,-0.8194155
94,1436541502276,1.4808137,9.443929,-0.78888947
95,1436541502302,1.5221137,9.414599,-0.736217
96,1436541502316,1.5071499,9.460688,-0.6937199
97,1436541502338,1.4454993,9.566033,-0.75956047
98,1436541502357,1.4239515,9.565434,-0.7930793
99,1436541502376,1.3652935,9.501988,-0.770933
100,1436541502397,1.3760674,9.409213,-0.7781156
101,1436541502469,1.4568717,9.4696665,-0.8122329
102,1436541502470,1.4502877,9.504382,-0.7691373
103,1436541502471,1.4766239,9.532514,-0.7846996
104,1436541502480,1.4490906,9.57142,-0.7469909
105,1436541502497,1.4502877,9.493608,-0.7422025
106,1436541502519,1.5987282,9.346964,-0.7673417
107,1436541502536,1.6717514,9.490616,-0.8451532
108,1436541502555,1.7166426,9.680356,-0.57999533
109,1436541502581,1.9578584,9.463681,-0.6278794
110,1436541502597,2.1547816,9.586384,-0.6631939
111,1436541502617,1.8231846,9.471462,-0.39384618
112,1436541502636,1.3826514,9.202114,-0.50757074
113,1436541502656,1.3796587,9.190144,-0.5907693
114,1436541502679,1.5502456,9.229648,-0.59376204
115,1436541502695,1.7292122,9.6288805,-0.6925228
116,1436541502718,1.5358804,9.713875,-0.2717419
117,1436541502735,1.1504139,9.348161,-0.3441665
118,1436541502758,1.1504139,9.217078,-0.6194997
119,1436541502776,1.4137762,9.775525,-0.8798691
120,1436541502797,1.4227544,10.034698,-0.58418524
121,1436541502819,1.335366,9.524733,-0.44831428
122,1436541502839,1.1761516,8.886678,-0.93732995
123,1436541502858,1.525705,9.091382,-1.578976
124,1436541502879,1.2988545,9.088988,-1.5664065
125,1436541502896,0.9588778,8.406042,-1.4862007
126,1436541502918,0.50158525,8.662222,-1.6106992
127,1436541502937,0.5303157,10.21965,-1.7076644
128,1436541502956,0.38307226,11.5633955,-0.50038815
129,1436541502979,0.533907,10.401609,-0.06584055
130,1436541502999,0.6961141,9.900024,-0.62967503
131,1436541503020,1.0570401,9.774328,1.471237
132,1436541503037,0.021547815,9.484032,0.24420857
133,1436541503056,-0.7356185,9.487623,-0.65421563
134,1436541503076,-0.80086046,9.334992,-1.5340848
135,1436541503099,-0.08439561,9.366715,-0.007182605
136,1436541503116,0.2148796,9.900622,0.05686229
137,1436541503138,0.26156655,9.781511,0.19033903
138,1436541503206,0.4201824,9.569026,0.36511576
139,1436541503207,0.7032967,9.816227,0.34955344
140,1436541503208,1.411382,9.973646,0.7158663
141,1436541503216,1.5873557,9.584588,0.79607207
142,1436541503239,1.3377602,9.47206,0.58418524
143,1436541503256,1.1210849,9.422979,-0.06584055
144,1436541503288,1.0773908,9.972448,0.35254622
145,1436541503296,1.9255368,12.062587,1.0510546
146,1436541503317,2.979584,12.855067,1.3239936
147,1436541503337,3.2465374,12.644977,1.2042835
148,1436541503356,1.5107412,12.671312,-0.14065935
149,1436541503379,0.08798691,11.878233,-1.0384849
150,1436541503396,0.42916065,9.13388,0.76195467
151,1436541503419,0.46208093,7.777564,0.6123171
152,1436541503437,0.8074445,7.766192,1.1558008
153,1436541503459,1.0498575,8.39467,0.5931635
154,1436541503477,1.7669208,8.492233,0.6691794
155,1436541503498,1.5969325,7.3897038,2.291251
156,1436541503519,1.5280992,6.849811,2.8993783
157,1436541503537,1.3904326,6.587646,2.5384524
158,1436541503559,1.2707225,6.4020953,1.9506758
159,1436541503577,1.4383167,5.667674,2.1978772
160,1436541503599,1.1180922,5.932832,2.0003555
161,1436541503618,0.4914099,5.954978,2.3199813
162,1436541503638,-0.14844051,5.6682725,2.5570073
163,1436541503658,-0.44472298,5.3007627,2.7994204
164,1436541503678,-0.79248077,4.633379,2.7246015
165,1436541503699,-0.81283146,4.39336,2.9658175
166,1436541503718,-0.23403321,5.1062336,3.970185
167,1436541503739,-0.053869538,6.703765,2.4648306
168,1436541503763,0.48841715,9.152434,0.78769237
169,1436541503778,1.3132197,10.95467,0.5093664
170,1436541503799,1.039682,10.263943,3.0071173
171,1436541503819,0.60573304,8.820838,4.3939586
172,1436541503841,1.1552023,8.715493,2.468422
173,1436541503918,1.9219455,8.66282,1.7890673
174,1436541503919,2.7096379,8.3821,2.7329812
175,1436541503920,3.2387564,8.261791,4.2820296
176,1436541503921,3.7104142,10.970831,3.2291796
177,1436541503939,3.8959646,14.723144,0.06943185
178,1436541503960,0.34476504,8.74123,4.216788
179,1436541503976,-3.0065188,8.335413,-6.5744777
180,1436541504006,-3.164536,17.911022,1.5921441
181,1436541504016,-4.495114,19.608511,14.343662
182,1436541504038,1.9488802,3.3369186,-13.432669
183,1436541504057,0.17118542,-0.91458505,-6.9892735
184,1436541504079,0.45968673,-0.002992752,2.9801826
185,1436541504103,2.291251,10.85531,0.88286185
186,1436541504120,5.0906715,19.608511,-2.6809072
187,1436541504138,-2.7790697,7.133524,4.3023806
188,1436541504159,1.0516531,6.4840965,-1.2743138
189,1436541504179,1.5119383,6.0172276,-0.49200845
190,1436541504199,-0.2825158,8.796297,3.2130187
191,1436541504219,-1.2060791,11.719617,6.5469446
192,1436541504238,0.21188685,7.0515227,-1.3874398
193,1436541504259,-0.3573346,4.2024226,0.16998832
194,1436541504281,-0.1933318,5.1636944,-0.7380127
195,1436541504298,-0.021547815,6.0764837,-0.025737667
196,1436541504320,2.9646204,7.539341,4.8404775
197,1436541504340,-2.480393,6.103419,0.15322891
198,1436541504361,-2.1667526,8.431181,-1.3916297
199,1436541504382,-0.32561144,8.236053,3.004723
200,1436541504400,2.1697452,9.746197,1.5221137
201,1436541504419,0.90381116,11.500547,4.496909
202,1436541504437,1.6777369,11.787253,2.6593595
203,1436541504458,6.2943563,15.099033,6.481104
204,1436541504482,7.318476,15.972917,9.113529
205,1436541504504,7.6285253,17.980455,7.306505
206,1436541504522,6.739678,16.240469,3.413533
207,1436541504539,1.5286977,9.114726,6.2422824
208,1436541504560,-1.3928268,3.7241807,7.739257
209,1436541504632,0.17836803,1.9231426,5.1636944
210,1436541504633,1.7998412,1.6316484,3.4093432
211,1436541504641,1.8423382,1.4574703,2.6312277
212,1436541504642,1.134253,3.1878796,3.329736
213,1436541504703,1.0217255,5.7161565,3.8253357
214,1436541504704,0.8702923,4.493318,4.820725
215,1436541504705,-0.41838676,2.236783,4.498705
216,1436541504838,-0.7990648,1.264737,2.8562827
217,1436541504851,0.3226187,3.6044707,3.1423898
218,1436541504852,0.41838676,7.7865424,3.0777464
219,1436541504853,1.2850877,11.779472,1.9446903
220,1436541504854,0.6805518,12.069769,2.6282349
221,1436541504855,-0.2717419,10.304046,4.808754
222,1436541504856,0.8571242,7.457938,5.8532248
223,1436541504858,1.2060791,5.9483943,4.1784806
224,1436541504879,1.0043676,7.2304893,1.7022774
225,1436541504899,2.4582467,9.363124,1.5370775
226,1436541504948,4.1186256,10.207679,4.609437
227,1436541504949,6.7492547,12.830527,1.4838065
228,1436541504960,6.889914,14.031817,-5.667674
229,1436541504982,-1.9997569,8.564059,-1.9219455
230,1436541505000,-1.6843209,10.487801,3.2615013
231,1436541505023,1.4149733,19.608511,3.1854854
232,1436541505040,-1.3078327,19.608511,3.2609026
233,1436541505061,0.18435353,8.045714,-2.5103204
234,1436541505081,0.9564836,2.504335,-4.187459
235,1436541505102,0.20111294,3.7463272,-0.6099229
236,1436541505118,1.9752164,8.503606,2.143409
237,1436541505142,3.1423898,16.440983,0.45489833
238,1436541505162,-2.2547395,12.24275,0.3573346
239,1436541505183,-1.8459295,10.201095,2.1230583
240,1436541505202,1.1575965,6.18961,2.3535004
241,1436541505221,1.5502456,4.3658266,3.1669302
242,1436541505241,0.32321724,6.96593,1.0073603
243,1436541505259,-1.4826094,7.161656,-2.4636335
244,1436541505281,0.5883751,6.2542534,1.1611878
245,1436541505302,0.39384618,6.5655,2.5306711
246,1436541505321,1.0031705,6.157887,1.5957354
247,1436541505342,0.23523031,5.6527104,1.4095862
248,1436541505361,-0.825401,6.535572,-1.875857
249,1436541505384,-2.094328,8.874707,2.2744915
250,1436541505443,-1.0139444,10.568604,4.6662993
251,1436541505444,-0.32680854,9.634268,0.7266402
252,1436541505455,0.533907,7.7967176,3.151368
253,1436541505459,1.965041,8.149862,1.1426327
254,1436541505481,2.9167361,12.418724,6.3362546
255,1436541505504,4.3766007,16.184204,8.290522
256,1436541505518,5.342661,18.261175,3.072958
257,1436541505539,6.067506,18.811842,8.527548
258,1436541505564,4.1078515,17.67699,4.4981065
259,1436541505581,-1.1575965,12.133216,-0.53211135
260,1436541505600,-2.2319946,4.796783,5.7628436
261,1436541505619,1.2413936,3.8259344,7.961319
262,1436541505645,2.6982653,2.6527755,4.705205
263,1436541505661,3.1292217,1.3497312,6.0621185
264,1436541505685,1.7794905,2.2493525,4.295198
265,1436541505701,1.0516531,4.6830587,2.4265234
266,1436541505720,-0.008379706,3.8630445,2.35769
267,1436541505742,-0.87567925,-0.046686932,3.6721067
268,1436541505760,-1.0247183,-1.7770962,3.1082723
269,1436541505781,-1.340753,-0.5021838,3.1202433
270,1436541505801,-1.2904748,2.7377696,2.7629087
271,1436541505822,0.97503865,7.926005,-0.7649474
272,1436541505840,4.5914803,15.783774,-6.9006877
273,1436541505859,3.4344823,15.060127,-3.0759506
274,1436541505882,4.4580035,10.229227,6.8581905
275,1436541505900,2.348712,7.3986816,14.486716
276,1436541505919,1.9231426,9.0476885,8.304289
277,1436541505939,-0.29867667,10.022128,1.2539631
278,1436541505959,1.9333179,11.9333,2.1410148
279,1436541505982,3.781043,15.535377,-4.96318
280,1436541505998,0.3172317,7.909844,-8.871715
281,1436541506018,0.7302315,9.175778,1.8070238
282,1436541506039,6.5026517,18.253393,14.67885
283,1436541506058,-0.034117375,19.608511,2.0213048
284,1436541506080,-4.2598834,17.99422,-4.312556
285,1436541506111,-0.059855044,4.754286,-4.979341
286,1436541506169,1.1546037,6.233304,-0.82599956
287,1436541506170,3.004723,10.218452,3.819949
288,1436541506171,0.8571242,14.516644,4.951209
289,1436541506182,-4.520851,11.118074,-0.2088941
290,1436541506202,-4.75668,9.337985,-0.9163807
291,1436541506219,-1.4670471,8.335413,0.51595044
292,1436541506273,1.2395979,6.5385647,3.3542767
293,1436541506274,1.5179238,6.5577183,5.439028
294,1436541506279,2.8658595,7.2167225,0.74639237
295,1436541506299,0.700304,5.3049526,-2.356493
296,1436541506327,-0.31304187,5.1265845,1.6065093
297,1436541506341,-1.1623849,6.1764417,4.520851
298,1436541506364,-1.0432734,6.2524576,1.0336965
299,1436541506379,-0.1592144,7.323863,3.6463692
300,1436541506402,0.4177882,9.13388,4.9637785
301,1436541506422,-1.270124,9.97185,1.5191209
302,1436541506442,-0.24301147,9.919776,1.7842789
303,1436541506462,-1.1145009,9.022549,-7.632715
304,1436541506482,2.4223335,9.382876,4.6046486
305,1436541506501,6.0758853,12.884995,12.585121
306,1436541506522,8.162432,16.56189,7.138911
307,1436541506543,5.8843493,17.88349,4.406528
308,1436541506559,4.648941,16.245855,4.0025067
309,1436541506582,2.5019407,12.604874,4.197634
310,1436541506603,0.83258367,6.63553,7.012018
311,1436541506622,0.25438392,2.473809,7.0808516
312,1436541506642,0.82899237,1.3485341,4.821324
313,1436541506662,0.21787235,1.6980876,1.7687165
314,1436541506688,0.4237737,2.2343888,2.529474
315,1436541506701,1.1180922,3.8546648,1.5394717
316,1436541506721,1.8369513,5.8622026,1.4718355
317,1436541506742,1.2054806,6.5427547,2.6144683
318,1436541506764,0.5943606,5.707178,4.2718544
319,1436541506785,0.2172738,4.8775873,4.7159786
320,1436541506802,1.6053122,4.283227,2.2583308
321,1436541506821,2.5899277,6.9689226,-0.8050503
322,1436541506892,3.502717,10.62427,-1.9321208
323,1436541506893,3.0364463,12.905944,-0.219668
324,1436541506894,2.4301147,10.909779,4.8123455
325,1436541506903,2.0272903,7.1490865,8.303091
326,1436541506925,0.7284359,5.2983685,5.4917
327,1436541506946,-0.025737667,6.367379,3.1944637
328,1436541506961,1.1174936,9.759365,2.9017725
329,1436541506983,3.4440591,15.358206,2.1517887
330,1436541506999,4.7177744,18.288708,-1.1899183
331,1436541507023,2.7006595,9.895236,-0.7703344
332,1436541507044,2.782661,6.435614,1.0319009
333,1436541507062,1.70946,11.155185,-2.9819782
334,1436541507086,1.2024878,17.831415,-2.706645
335,1436541507102,-1.5442601,19.576788,6.730101
336,1436541507123,-0.8026561,12.786833,1.3611037
337,1436541507143,-0.78888947,9.167398,-3.945046
338,1436541507163,-1.050456,10.724827,1.0013748
339,1436541507183,-2.098518,10.390836,0.56922144
340,1436541507203,-1.1240777,8.04751,0.033518825
341,1436541507223,0.6278794,7.382521,-1.0097545
342,1436541507242,0.1436521,7.8906903,0.18136078
343,1436541507263,-0.17417817,7.4591355,4.7040076
344,1436541507284,-0.20949265,9.208099,1.1528081
345,1436541507301,-0.7763199,7.860164,-0.4189853
346,1436541507323,0.7870938,5.6700683,-0.6218939
347,1436541507343,-1.484405,4.0252514,1.9554642
348,1436541507363,-1.2683283,4.5663414,-1.7729063
349,1436541507383,0.5069722,4.631583,-1.560421
350,1436541507403,1.2318168,6.5882444,5.3324857
351,1436541507423,-1.8579005,8.275558,1.508347
352,1436541507443,-0.6721721,8.755595,-0.5363012
353,1436541507463,0.65301853,8.063073,4.656722
354,1436541507483,0.3585317,8.716091,1.002572
355,1436541507503,2.2463598,9.871892,1.9746178
356,1436541507523,4.256292,12.592902,5.044583
357,1436541507542,2.2613235,18.402433,-0.48841715
358,1436541507565,2.669535,18.828003,3.525462
359,1436541507641,4.594473,17.336414,6.2404866
360,1436541507642,6.345233,16.231491,4.9200845
361,1436541507643,3.4045548,9.543886,5.279215
362,1436541507644,2.4720132,3.0963013,5.723339
363,1436541507661,1.311424,1.1192893,6.841431
364,1436541507687,-0.0712275,2.5157075,3.2716765
365,1436541507703,-0.032920275,4.0719385,1.4850036
366,1436541507720,0.99658644,3.940856,0.97264445
367,1436541507741,1.4149733,4.8859673,1.06123
368,1436541507763,1.6454151,5.3678,2.621651
369,1436541507780,0.28670564,3.596091,4.687248
370,1436541507803,-0.7763199,2.6503813,5.4444146
371,1436541507829,0.12749124,2.4779987,0.96546185
372,1436541507841,3.1256304,7.7949224,-4.869208
373,1436541507863,2.554613,16.005238,-4.6154222
374,1436541507884,1.5221137,14.321516,4.8895583
375,1436541507904,4.708796,7.8027034,7.2322845
376,1436541507923,3.2429461,5.5527525,6.527791
377,1436541507944,1.411382,5.8364654,4.0384197
378,1436541507964,0.12449849,6.187814,-1.4041992
379,1436541507983,0.1388637,12.857462,0.1448492
380,1436541508004,-2.938284,14.283808,-5.011064
381,1436541508023,-3.1884782,9.463681,-4.557363
382,1436541508043,1.9644425,15.536573,3.2255883
383,1436541508061,2.9233203,16.328455,2.4791958
384,1436541508084,-0.58777654,19.608511,14.578893
385,1436541508104,0.10474633,12.378023,-0.59615624
386,1436541508123,1.163582,2.0147207,-10.159795
387,1436541508143,-2.8335378,2.1823149,-5.4659624
388,1436541508164,3.2561142,8.4587145,3.3435028
389,1436541508183,2.7964275,18.563442,6.1327477
390,1436541508203,-3.020884,12.391191,-0.6769605
391,1436541508224,-1.7076644,7.4842744,0.11252748
392,1436541508243,-0.110133275,5.3007627,0.39803603
393,1436541508264,0.12389994,6.5206084,2.6252422
394,1436541508283,0.62009823,7.5944076,1.0905589
395,1436541508302,0.33638534,6.9970546,-0.78410107
396,1436541508424,0.30585927,5.639542,1.9045875
397,1436541508425,0.4938041,5.6245785,5.016451
398,1436541508426,-0.29029694,5.3324857,0.85891986
399,1436541508427,0.3345897,6.220136,-2.3002293
400,1436541508428,-0.8379706,9.428965,1.8716671
401,1436541508429,-1.9776106,9.937134,4.7937903
402,1436541508443,-2.3517046,10.301053,3.0190883
403,1436541508461,-0.12988544,8.560468,-1.1659763
404,1436541508482,2.7006595,8.356961,1.8309658
405,1436541508507,3.8420951,12.2637,6.05733
406,1436541508521,5.5120506,15.719729,4.433463
407,1436541508543,7.358579,18.016966,4.1862617
408,1436541508562,6.26802,16.357784,3.9306808
409,1436541508582,2.791639,14.315531,3.8935704
410,1436541508604,2.654571,12.154165,4.034828
411,1436541508622,1.3706805,5.9250507,2.5133133
412,1436541508646,2.4241292,6.319495,3.494936
413,1436541508661,0.9947908,4.799776,3.4614172
414,1436541508684,-0.38187516,2.380435,1.46585
415,1436541508703,0.13706805,1.9602526,1.264737
416,1436541508721,0.7326257,2.907758,2.5498247
417,1436541508742,0.46986207,3.4219127,2.8377275
